start_min,af,cv,nrmssd,entropy,tpr,pnn50,record,pred,prob_logreg2,prob_logreg5,prob_pnn50
0.0,False,0.2867222040555409,0.3159167071798493,0.8469157279233338,0.5357142857142857,0.5529411764705883,04015,True,0.9090781749016752,0.8466372080100543,0.6542193763209886
1.0,False,0.30657027440767004,0.40110118116753973,0.8581669622109239,0.6022727272727273,0.7415730337078652,04015,True,0.9451275663079622,0.9707530414508665,0.9399324889595592
2.0,False,0.33256202521700295,0.4346957945140695,0.8382342910454629,0.6022727272727273,0.8089887640449438,04015,True,0.958857256802033,0.9771301603901699,0.9708411297225141
3.0,False,0.32839420712674744,0.2093345827146605,0.8419804947183829,0.5454545454545454,0.37,04015,True,0.8668499350964383,0.72034625761594,0.1960249636745082
4.0,False,0.3143165941699185,0.4358512905522136,0.8825023148682971,0.6865671641791045,0.8676470588235294,04015,True,0.9543032898016329,0.9940245088716182,0.9846683267185071
5.0,False,0.22209679538633265,0.2822532458665415,0.7427376486136673,0.7272727272727273,0.5652173913043478,04015,True,0.8309611158082387,0.19465197942242296,0.6846302947959083
6.0,False,0.28548081947187154,0.23570882463379392,0.8134479857061717,0.5681818181818182,0.5842696629213483,04015,True,0.8572602072759016,0.7996409969321661,0.7287957365657078
7.0,True,0.2467976286178079,0.2780503274514723,0.9126979925275712,0.5954198473282443,0.6060606060606061,04015,True,0.8557431995414048,0.9656343141620525,0.7742702609981941
8.0,False,0.26080004651216293,0.4019176055811537,0.8882817703556353,0.8526315789473684,0.9375,04015,True,0.9256909140251022,0.9949753424494306,0.9929296219061741
9.0,True,0.2771263754253404,0.31780167289851613,0.9555659828593523,0.5984251968503937,0.734375,04015,True,0.9041025616186111,0.9965084250214569,0.9352160719900037
10.0,True,0.19159821196850482,0.25593944209332425,0.9301599415095878,0.6090225563909775,0.664179104477612,04015,True,0.7550831837887324,0.9690954211118898,0.8680145866380747
11.0,False,0.33343049301567507,0.40683307870690943,0.7862547557872095,0.6578947368421053,0.5324675324675324,04015,True,0.9543783691618447,0.5991541503939011,0.6006875644924907
12.0,False,0.20993708602845934,0.29069192512616127,0.5774414435874555,0.6585365853658537,0.3855421686746988,04015,True,0.8218311541962605,0.0008669098983859554,0.22491468744491766
13.0,False,0.2103360358969408,0.22823137460274645,0.7850657117271496,0.6823529411764706,0.45348837209302323,04015,True,0.753786746559988,0.21563059356801131,0.3831390069364611
14.0,False,0.025126367845518725,0.043980157613586784,0.9325981104007496,0.7066666666666667,0.14473684210526316,04015,False,0.0024708227303453707,0.002900613349487795,0.01918411508565556
15.0,False,0.20093790262217706,0.23177563568759427,0.78934151905721,0.6506024096385542,0.5476190476190477,04015,True,0.7412909887062727,0.3498579503956069,0.6406139088998186
16.0,False,0.09698965338658097,0.12333073007221367,0.6250140790800603,0.6794871794871795,0.31645569620253167,04015,False,0.18218935761584212,0.00025067958889483905,0.11804978136790131
17.0,False,0.14471518462330724,0.16565581271611163,0.3681661729949736,0.525,0.19753086419753085,04015,False,0.45350827637031654,5.703859612196792e-07,0.03412505793507292
18.0,False,0.16224719571382412,0.18691476380740174,0.6855221507116226,0.6097560975609756,0.43373493975903615,04015,True,0.562571004065539,0.010338249104321753,0.3323696747604716
19.0,False,0.11575880745082577,0.11321188598040477,0.9156267118575642,0.6375,0.2839506172839506,04015,False,0.21590090570235007,0.2923955015531916,0.0850920216778299
20.0,False,0.023074220786034487,0.03719994352626368,0.9031313586513825,0.5949367088607594,0.0875,04015,False,0.0015628902297697223,0.000768516769553353,0.010197507830570643
21.0,False,0.1465448070882109,0.1382608771835077,0.43945852945427955,0.6144578313253012,0.23809523809523808,04015,False,0.38456008967044447,5.4239359162740254e-06,0.052716182235539324
22.0,False,0.024799089689303867,0.04304485430689526,0.8684240611420876,0.5949367088607594,0.1375,04015,False,0.002319575109338223,0.0005545909744881209,0.017716984508188587
23.0,False,0.030870314044228124,0.03644733550291941,0.8915387693692685,0.6,0.09876543209876543,04015,False,0.002718142400322628,0.001698276753197334,0.011553023869616326
24.0,False,0.08729223872049366,0.10324123868166091,0.8548524405131745,0.5679012345679012,0.17073170731707318,04015,False,0.11721868684334663,0.016023145751585446,0.02550222894518794
25.0,False,0.021722551601379574,0.037216287249924034,0.848969191733093,0.6075949367088608,0.125,04015,False,0.0013843194232558314,0.00022924923341739357,0.015438115051384598
26.0,False,0.031819674387092885,0.05201451491957083,0.9144495773689014,0.6666666666666666,0.16455696202531644,04015,False,0.0052962271698765075,0.00412549004335097,0.023838775021604294
27.0,False,0.017454868137856728,0.02761772476054947,0.7589490692818216,0.5584415584415584,0.038461538461538464,04015,False,0.0005341299836334923,8.105377797114372e-06,0.005913425333410245
28.0,False,0.025023783867798143,0.040447605752952656,0.9295526491910815,0.5921052631578947,0.09090909090909091,04015,False,0.002124219917426225,0.0018206284212842578,0.010590197372035572
29.0,False,0.025626747446081583,0.03991631443141961,0.910103620632526,0.5657894736842105,0.09090909090909091,04015,False,0.00217919928291442,0.0012392212657484874,0.010590197372035572
30.0,False,0.025822916085509098,0.03958843111693438,0.8947970377034169,0.5733333333333334,0.07894736842105263,04015,False,0.0021821090370039036,0.0008068181504742608,0.009274648714988658
31.0,False,0.026241680254032892,0.040157879752138394,0.8871119278703878,0.56,0.09210526315789473,04015,False,0.002309823295985773,0.0007725145481266317,0.010731499054466876
32.0,False,0.024629479219622805,0.03940733088864847,0.8995643829347545,0.6533333333333333,0.09210526315789473,04015,False,0.001967631173231058,0.0008769474387874273,0.010731499054466876
33.0,False,0.02483838721314634,0.04012454530016154,0.9086528007726421,0.6,0.09210526315789473,04015,False,0.0020640876627437636,0.0010927514447771024,0.010731499054466876
34.0,False,0.023783250353227304,0.037613605600780614,0.8892698868733384,0.5466666666666666,0.07894736842105263,04015,False,0.00169319538928903,0.0005573509208337625,0.009274648714988658
35.0,False,0.04331157993064967,0.07003690298299735,0.6983812981240861,0.47297297297297297,0.05333333333333334,04015,False,0.0162680507269088,1.952982753835945e-05,0.0069777049037154796
36.0,False,0.023246130851461558,0.035462339088169995,0.8727197240360941,0.5945945945945946,0.04,04015,False,0.0014620733871832054,0.0002709202951709931,0.006015584022152045
37.0,False,0.02073782880196155,0.03120953731635966,0.8286476776178535,0.4657534246575342,0.04054054054054054,04015,False,0.0009329957002103794,6.943727921450057e-05,0.006051892498429497
38.0,False,0.07075773435573436,0.11860509748509634,0.867893297467102,0.6081081081081081,0.16,04015,False,0.09911691446662417,0.009092740524507429,0.022679507817223478
39.0,False,0.08973455769491034,0.13550665643868223,0.9685072922390019,0.5753424657534246,0.12162162162162163,04015,False,0.1827211297846181,0.13078797188611424,0.014873403094017242
40.0,False,0.17025237119189218,0.2444863260818771,0.8219364419271137,0.5189873417721519,0.575,04015,True,0.6917641921142295,0.4396609717273402,0.7077951913296857
41.0,False,0.018478119562825506,0.03128035283738701,0.76633775013522,0.6266666666666667,0.06578947368421052,04015,False,0.0007415950906501978,1.3287708442577636e-05,0.008013970358113165
42.0,False,0.024696700994930806,0.03830442334644202,0.9059103653351328,0.6351351351351351,0.12,04015,False,0.0018849156580057753,0.0013091222104788089,0.014609616208713785
43.0,False,0.08773978233114064,0.09953802311479483,0.9487940759075966,0.631578947368421,0.22077922077922077,04015,False,0.1119321519310384,0.19863684811789256,0.04382997220060405
44.0,False,0.053634175301586116,0.07270118609746128,0.808173391027525,0.6842105263157895,0.12987012987012986,04015,False,0.026458841301454573,0.0010428208285447604,0.01628949503734989
45.0,False,0.03866665170118442,0.06262483836376696,0.899102258031248,0.7066666666666667,0.17105263157894737,04015,False,0.010737410650866787,0.004947678843111311,0.025591708816883083
46.0,False,0.041986780426653374,0.060417833671607364,0.8925336120249304,0.6578947368421053,0.05194805194805195,04015,False,0.01191761442950812,0.0022227265327794763,0.006871017181425687
47.0,False,0.0655158032676477,0.07510718125016515,0.917411067237115,0.6103896103896104,0.16666666666666666,04015,False,0.041312970940121437,0.0349485144643616,0.02439486322570485
48.0,False,0.02132664945765394,0.03601997873212881,0.888455361906012,0.5974025974025974,0.10256410256410256,04015,False,0.001261369094367736,0.0004805094249163607,0.012049109908168293
49.0,False,0.031311578219428336,0.046188131333513995,0.9045438632773587,0.64,0.2236842105263158,04015,False,0.004188400690864445,0.005372569543368715,0.04521394999640729
50.0,False,0.19281534416241586,0.2057030107282095,0.8481851207487026,0.6266666666666667,0.21052631578947367,04015,True,0.6824412647713034,0.13079418232156909,0.03926173223984033
51.0,False,0.2773953164196382,0.447975251404845,0.36622357836799013,0.6206896551724138,0.2542372881355932,04015,True,0.9444229534394043,3.294512289199592e-06,0.06250978188139689
52.0,False,0.0904925608676696,0.13225719892636822,0.593486085567781,0.68,0.27631578947368424,04015,False,0.17909417517382867,6.403158333760535e-05,0.07866674842847822
53.0,False,0.2570241731084676,0.21810383772510514,0.584009707455169,0.5529411764705883,0.37209302325581395,04015,True,0.8095800955574315,0.0022164754419745684,0.1997457668543754
54.0,False,0.3224662108857733,0.3879138414924402,0.917073697491588,0.6,0.8125,04015,True,0.9474253453430204,0.9965879866633809,0.9719340257066229
55.0,False,0.21367779670941756,0.28818153183771344,0.8498401464028731,0.5903614457831325,0.7261904761904762,04015,True,0.824875983902211,0.9049923174978453,0.92943563868688
56.0,False,0.09439548886856329,0.12278778713890681,0.5360782341412399,0.6533333333333333,0.19736842105263158,04015,False,0.17306788071678753,1.0475746979670771e-05,0.034065140866726816
57.0,False,0.02436752637637397,0.0358115082168175,0.9395927447382755,0.5540540540540541,0.02666666666666667,04015,False,0.001635351797095019,0.0014064477515452404,0.005185432440159117
58.0,False,0.10515821970559591,0.16071539356350978,0.5289161701403281,0.5540540540540541,0.24,04015,False,0.2921476628272284,1.378204447197623e-05,0.053791743338406216
59.0,False,0.2225774129432032,0.3425922376506582,0.8901730182591144,0.6666666666666666,0.6835443037974683,04015,True,0.873048505054551,0.9478876716328415,0.8909430026358038
60.0,False,0.21377504141951686,0.2803025481276001,0.8498502507197692,0.7142857142857143,0.6282051282051282,04015,True,0.8180583902784702,0.8229366210787254,0.8146637951111021
61.0,False,0.16168488175151852,0.22616425006084098,0.8052061944610499,0.7051282051282052,0.5949367088607594,04015,True,0.6388961350277436,0.3650018702176658,0.7517548463472188
62.0,False,0.09493827976638493,0.11588587258109954,0.7629123862855499,0.5068493150684932,0.22972972972972974,04015,False,0.1609236170072869,0.0033226989459805697,0.048228675268751305
63.0,False,0.019165225520767198,0.031040363522385952,0.8028265123731694,0.547945205479452,0.05405405405405406,04015,False,0.0007880242830400103,3.26187486621449e-05,0.007033860238113048
64.0,False,0.01278841420438893,0.021179657355577877,0.6565983147507997,0.4794520547945205,0.013513513513513514,04015,False,0.00018073075232379613,2.4560218133720625e-07,0.00447831476222504
65.0,False,0.14089861754818161,0.22735705152056393,0.6950810002455845,0.5866666666666667,0.3815789473684211,04015,True,0.5746556546386904,0.00459574226402304,0.2172710997853266
66.0,False,0.18153140987745278,0.2284726572459927,0.7083683479697306,0.631578947368421,0.35064935064935066,04015,True,0.6947529155794354,0.011511720048658624,0.1640968532019327
67.0,False,0.2073648802262938,0.26258214482528747,0.7895761910558563,0.5063291139240507,0.5125,04015,True,0.7908231293661697,0.284461370060733,0.5460421665418668
68.0,False,0.30423376706387056,0.3766913189161585,0.9478774426080959,0.6444444444444445,0.8571428571428571,04015,True,0.9383948867721679,0.9986587737250837,0.9827871375278671
69.0,False,0.2860355777877621,0.3508172752830752,0.8723282430973028,0.625,0.8651685393258427,04015,True,0.9224990219283572,0.9910099556316692,0.9842435611395557
70.0,False,0.31318702539816334,0.34692966986304985,0.9435552857036438,0.6597938144329897,0.7857142857142857,04015,True,0.9334790266986174,0.9977956090727554,0.9624831561364094
71.0,False,0.3035078975239373,0.4220524765554564,0.8936333107614125,0.71,0.7722772277227723,04015,True,0.948488236298572,0.9895280693416457,0.956654101850651
72.0,False,0.3817291769003687,0.44098857532597996,0.8616550918864218,0.6448598130841121,0.7870370370370371,04015,True,0.9693067143424708,0.9900787883070136,0.9630144651632019
73.0,False,0.2964247938686084,0.37252287406233214,0.8735303666649643,0.7640449438202247,0.6777777777777778,04015,True,0.9341175411859289,0.9663640839732102,0.8845073543951941
74.0,False,0.1129214174790406,0.15015660705180953,0.609800323908002,0.5616438356164384,0.28378378378378377,04015,False,0.2979772331368943,0.00018392412694956704,0.08494666473923278
75.0,False,0.31436315097492173,0.3419216317767042,0.8620250415625162,0.6458333333333334,0.711340206185567,04015,True,0.9323980874559944,0.972981980714561,0.9177172185180011
76.0,False,0.2320918113578701,0.3310362441615977,0.865033560571724,0.7590361445783133,0.75,04015,True,0.8759120430517913,0.9528201164487801,0.945045215735536
77.0,False,0.2732402757622016,0.4063104564640368,0.8240195044187647,0.7558139534883721,0.896551724137931,04015,True,0.9330975373610315,0.9717788470301048,0.9888612052185725
78.0,False,0.3136867420806651,0.38398226626831233,0.9059303582281231,0.6666666666666666,0.851063829787234,04015,True,0.9436506427159382,0.9964716792674322,0.981596685861293
79.0,False,0.3664741252744955,0.34810224336398965,0.9318749448006896,0.56,0.6732673267326733,04015,True,0.9509865305032208,0.995701365255546,0.8792456864559982
80.0,False,0.16056674697042395,0.21608902985136383,0.7328462057199595,0.6973684210526315,0.4935064935064935,04015,True,0.6174124675590651,0.04374331727568925,0.49299100950346925
81.0,False,0.28221492478858234,0.37026311021121067,0.8460940941965888,0.6705882352941176,0.7209302325581395,04015,True,0.9270227605241699,0.9456180406675243,0.9254725491478359
82.0,False,0.319996213631762,0.36876700060252066,0.8945646890153159,0.6091954022988506,0.8295454545454546,04015,True,0.94209851431044,0.9949664193588694,0.9766980663998422
83.0,False,0.33346091201684336,0.32066692346441966,0.8559680997136735,0.594059405940594,0.6568627450980392,04015,True,0.9330056749325366,0.9625563144587573,0.8583403019106534
84.0,False,0.32659216049890255,0.39440463874025583,0.8648626523801902,0.7142857142857143,0.8282828282828283,04015,True,0.9500572548228419,0.9900043293028976,0.9763740400191722
85.0,False,0.3595341859534878,0.41269087914720226,0.925223366993891,0.6632653061224489,0.7575757575757576,04015,True,0.961498167131329,0.9968775270004852,0.9492890502355702
86.0,False,0.18008669174424854,0.23252631356205894,0.7286402365441949,0.6666666666666666,0.5131578947368421,04015,True,0.697691950230747,0.06188444926063155,0.5478680446159194
87.0,False,0.21039021162961902,0.2991157581718394,0.8524574930271658,0.7721518987341772,0.775,04015,True,0.8294916076225636,0.934620625030688,0.9579011919222709
88.0,False,0.2845327886583785,0.39398288028683737,0.9087180760561543,0.7126436781609196,0.9090909090909091,04015,True,0.9349050226615309,0.9970767402404414,0.9903065141372316
89.0,False,0.30772093113964777,0.44326135991193244,0.8409237353916152,0.7386363636363636,0.8651685393258427,04015,True,0.9536836544668367,0.9823381186566231,0.9842435611395557
90.0,False,0.26731011716204417,0.3135899958089601,0.8845435382143236,0.686046511627907,0.5862068965517241,04015,True,0.8954634300679614,0.9361815237026367,0.7330629043360759
91.0,False,0.3109774925976771,0.39352099775694216,0.8742202771900826,0.7111111111111111,0.6703296703296703,04015,True,0.9449341366624371,0.9682464268412585,0.8757085616293634
92.0,False,0.3533030284166266,0.3857573634972272,0.8875720256873865,0.6451612903225806,0.648936170212766,04015,True,0.9555085644138278,0.9819583460871689,0.8471983678145644
93.0,False,0.3403988760232835,0.3999158502121354,0.8695491110063969,0.6346153846153846,0.7333333333333333,04015,True,0.9549221566348542,0.9832042351955379,0.9345056166538983
94.0,False,0.27916497258117134,0.39095121012546347,0.8608175119538386,0.6941176470588235,0.7325581395348837,04015,True,0.9316816265636089,0.9618226450622982,0.9339722105993755
95.0,False,0.1750229228353814,0.20661055644421975,0.7141251048954858,0.76,0.4342105263157895,04015,True,0.6402524277955909,0.02496716096145029,0.33355270784659513
96.0,False,0.18194993147137356,0.21063348867345083,0.7908381144204799,0.6103896103896104,0.5641025641025641,04015,True,0.6655338330247668,0.32891056606017766,0.6819281832095411
97.0,False,0.2697147131719238,0.34808985337395615,0.8377194646568631,0.6585365853658537,0.6867469879518072,04015,True,0.9124926030422013,0.9074624184924508,0.8943797424609208
98.0,False,0.05273228273922074,0.07728791512602909,0.8791478261864866,0.6285714285714286,0.1267605633802817,04015,False,0.028331011169541787,0.004985125790976388,0.015740713894887313
99.0,False,0.11754988647072939,0.18150595107486894,0.5748337086130708,0.6285714285714286,0.23943661971830985,04015,False,0.3890530158187259,5.529836094640543e-05,0.05347148204998443
100.0,False,0.015945614795399785,0.023008493336210446,0.8153304769428628,0.5774647887323944,0.027777777777777776,04015,False,0.00032550949185229487,2.5158632396972122e-05,0.00525002529236739
101.0,False,0.01817563283826362,0.029862493101745415,0.8417836051477489,0.5633802816901409,0.06944444444444445,04015,False,0.0006625636056166939,8.191765822072837e-05,0.00834604386202545
102.0,False,0.02498695064744905,0.04066002730636864,0.8551871036920082,0.6056338028169014,0.1111111111111111,04015,False,0.0021369239113335527,0.000352972234136936,0.013243523743626149
103.0,False,0.02326857108003379,0.03373609513084591,0.9338796343567513,0.5571428571428572,0.056338028169014086,04015,False,0.0013452448093679546,0.0013961344896638046,0.007214798241339569
104.0,False,0.020854420444438304,0.03442748169652225,0.8766477171827993,0.5774647887323944,0.06944444444444445,04015,False,0.0011158925031004672,0.0002672924058880363,0.00834604386202545
105.0,False,0.02309500374090502,0.03888693840776491,0.9018610986648398,0.6338028169014085,0.125,04015,False,0.0016889200727228122,0.0009759902444752646,0.015438115051384598
106.0,False,0.022310474939434895,0.03809320725857464,0.9039593060343497,0.6619718309859155,0.1111111111111111,04015,False,0.001520427984757379,0.0008403234790530158,0.013243523743626149
107.0,False,0.043957007363718,0.07299304770872028,0.9282237304661074,0.7183098591549296,0.18055555555555555,04015,False,0.017960028905032673,0.014410089592918476,0.0283841939328189
108.0,False,0.021873461458406896,0.03796298160966606,0.919554249407794,0.7,0.09859154929577464,04015,False,0.0014522846353558676,0.0010507757815926351,0.011530805327496967
109.0,False,0.019713192331393223,0.03388365704784665,0.8712764847353829,0.6,0.09859154929577464,04015,False,0.0009690767561625136,0.0002494960499850101,0.011530805327496967
110.0,False,0.022715747699328197,0.04064480308786449,0.9531133774336511,0.7,0.18309859154929578,04015,False,0.0017613843015791158,0.004898380679985036,0.02918033517157394
111.0,False,0.022548053988663545,0.03902538394300677,0.9254306361606714,0.6428571428571429,0.15492957746478872,04015,False,0.0016188176210632705,0.0020104993989054974,0.021454303455113774
112.0,False,0.022470452269138227,0.04014433562866034,0.946955685532761,0.6714285714285714,0.16901408450704225,04015,False,0.0016870725288898557,0.0036638098529948302,0.025028477965784612
113.0,False,0.021920958796154567,0.03766017974568622,0.9207027576314021,0.7285714285714285,0.11267605633802817,04015,False,0.0014388551512975753,0.0012314918609982364,0.013474541607638564
114.0,False,0.02021478927429404,0.03615645597341516,0.84292955125584,0.6428571428571429,0.09859154929577464,04015,False,0.0011392232703817504,0.0001309209251281483,0.011530805327496967
115.0,False,0.0672351217545794,0.10717967811019692,0.8359624619771311,0.6619718309859155,0.25,04015,False,0.07700560588212596,0.007947733982481933,0.059785693925579635
116.0,False,0.023955088661321587,0.03895043887511359,0.9204798518361204,0.6285714285714286,0.16901408450704225,04015,False,0.0018235764087336595,0.0024318738192779096,0.025028477965784612
117.0,False,0.022536843468106305,0.039650144517999676,0.8796128816197226,0.6086956521739131,0.17142857142857143,04015,False,0.0016616480979091512,0.0007415557872554684,0.025696916947937375
118.0,False,0.18756152438727558,0.27895791437471706,0.7175379501886144,0.6027397260273972,0.5405405405405406,04015,True,0.7738320714917729,0.057201430619299554,0.6221654136702038
119.0,False,0.05095685834046174,0.0739397619972128,0.8902226003810947,0.5797101449275363,0.1,04015,False,0.02459840774258981,0.004832698286185459,0.011711996786672231
0.0,False,0.014795183810009079,0.02303751150745008,0.6896779183014369,0.5480769230769231,0.0,04043,False,0.0005607901774696249,5.516116403848596e-06,0.004749328199732649
1.0,False,0.018194056468080016,0.024568709024305805,0.764839068228068,0.49514563106796117,0.0,04043,False,0.0008698642770454543,4.8413385997452845e-05,0.004749328199732649
2.0,False,0.0178013168563411,0.025300397825719134,0.7485317317823927,0.5242718446601942,0.0,04043,False,0.0008887245613235241,3.0598898888211865e-05,0.004749328199732649
3.0,False,0.020827965036753833,0.02251905863565223,0.7780740105903625,0.47115384615384615,0.0,04043,False,0.000909632976895691,9.518729440510863e-05,0.004749328199732649
4.0,False,0.18036517672516486,0.1984949629943371,0.9319024180225042,0.47058823529411764,0.07766990291262135,04043,True,0.6007044469655523,0.1973437399468151,0.010716493493613942
5.0,False,0.01743963390912745,0.021548163141427355,0.7544239805777192,0.43137254901960786,0.0,04043,False,0.0006372209986828389,3.9776194352252486e-05,0.004749328199732649
6.0,False,0.017364170426203026,0.026293816202443407,0.7553207563926919,0.4090909090909091,0.0,04043,False,0.0009194245931152887,3.701703639473889e-05,0.004749328199732649
7.0,False,0.01600293370408782,0.021334144405330588,0.6963038675009051,0.42857142857142855,0.0,04043,False,0.0005478754930699504,8.99748569703104e-06,0.004749328199732649
8.0,False,0.017612414652648463,0.025781971311372352,0.724446391848488,0.4519230769230769,0.0,04043,False,0.0009057184781809972,1.858305932550485e-05,0.004749328199732649
9.0,False,0.017520964138955982,0.025427743168548435,0.7832137739066426,0.4423076923076923,0.0,04043,False,0.0008754809475663835,6.929456293600665e-05,0.004749328199732649
10.0,False,0.0204317821768837,0.028399538442345183,0.7530934763347337,0.4174757281553398,0.0,04043,False,0.0013644094113903845,4.875803866107156e-05,0.004749328199732649
11.0,False,0.02176454725951607,0.027556889045376634,0.8142863904668293,0.49019607843137253,0.0,04043,False,0.0014211433765747954,0.0002084413825553245,0.004749328199732649
12.0,False,0.02974327638245014,0.04498646405222292,0.8010735849407566,0.4803921568627451,0.02912621359223301,04043,False,0.005743632491247815,0.0003115101941151758,0.006447666089547663
13.0,False,0.018145987028576144,0.02611177275266589,0.7750722150762656,0.4854368932038835,0.0,04043,False,0.0009711594565390833,5.9136103924657194e-05,0.004749328199732649
14.0,False,0.01896694010020389,0.027029124582004925,0.7677059084669119,0.46153846153846156,0.0,04043,False,0.0011091122765889338,5.588310672388026e-05,0.004749328199732649
15.0,False,0.019636869008859963,0.024704825097574556,0.7785406481526028,0.4174757281553398,0.0,04043,False,0.0009884449056823507,8.44759328221835e-05,0.004749328199732649
16.0,False,0.017600051800949784,0.025011578508706868,0.7398643042114837,0.4807692307692308,0.0,04043,False,0.0008547062645337909,2.5826541891400807e-05,0.004749328199732649
17.0,False,0.1347437278002353,0.18537009310768565,0.6073382917216794,0.5510204081632653,0.1717171717171717,04043,True,0.45781117285618067,0.00017839037819291785,0.028400367789993174
18.0,True,0.2686908538235236,0.28401451550141266,0.9141811753486133,0.5092592592592593,0.6055045871559633,04043,True,0.8448489327187682,0.9517588277197546,0.740010141590989
19.0,True,0.24560946487057175,0.31618779532658914,0.9179597830757278,0.5614035087719298,0.7130434782608696,04043,True,0.8529376605557449,0.9729954992857562,0.8985374480514398
20.0,True,0.21601301381520815,0.2924400473297245,0.9245558158597482,0.6260869565217392,0.7586206896551724,04043,True,0.8043184409900069,0.977360493031708,0.9347552671148316
21.0,True,0.19514854682549757,0.24807505452316425,0.9255379910884647,0.5378151260504201,0.6333333333333333,04043,True,0.7207607578842573,0.9403600947158306,0.7924487650947688
22.0,True,0.22142810515617378,0.28868439160206033,0.9759934342721982,0.5979381443298969,0.7653061224489796,04043,True,0.8064930726782955,0.9936740659866835,0.9389290260861655
23.0,True,0.23027346290790965,0.2710194362370394,0.9289475511301524,0.6036036036036037,0.5714285714285714,04043,True,0.7972503991533927,0.9322603259511987,0.6651553398502327
24.0,True,0.21457818524860292,0.2329688851238181,0.9177405446785822,0.5267857142857143,0.5752212389380531,04043,True,0.7264149486286021,0.9165161216757203,0.6740114711419841
25.0,False,0.06707622205555006,0.0819370257830761,0.8966868559214577,0.46153846153846156,0.0761904761904762,04043,False,0.058639709781190555,0.01796317264269634,0.0105522058418588
26.0,False,0.060234435390295556,0.0876127066453991,0.8182424350366301,0.4423076923076923,0.08571428571428572,04043,False,0.056470119327183564,0.002623067435704365,0.011655079433747903
27.0,False,0.03415240406209227,0.053793678285648516,0.6710181480064625,0.40384615384615385,0.01904761904761905,04043,False,0.00989869900652986,2.1397626706287094e-05,0.005800771938569414
28.0,False,0.01456107559648402,0.020501120719609054,0.7245916840222889,0.5,0.0,04043,False,0.000439644287630838,1.2932114632853447e-05,0.004749328199732649
29.0,False,0.014670004361203389,0.022542779758925505,0.6684679189849764,0.5,0.0,04043,False,0.0005314144146014314,3.578218888933283e-06,0.004749328199732649
30.0,False,0.014522068442636947,0.02332227710360626,0.687399189501718,0.46534653465346537,0.0,04043,False,0.0005576378806698989,5.425438191926306e-06,0.004749328199732649
31.0,False,0.014287171945501196,0.02249363969707492,0.673579486084833,0.49504950495049505,0.0,04043,False,0.0005081315086910565,3.797146819492538e-06,0.004749328199732649
32.0,False,0.015686962384399043,0.024889249978061384,0.6718620721951117,0.5643564356435643,0.0,04043,False,0.0007094275847027061,4.005876227382328e-06,0.004749328199732649
33.0,False,0.01606226659615987,0.02097168471469829,0.7375183168874145,0.4752475247524752,0.0,04043,False,0.0005335751458456884,2.1907577406609544e-05,0.004749328199732649
34.0,False,0.015766072857736343,0.022310453002366653,0.7217056240628754,0.52,0.0,04043,False,0.0005823270320444502,1.364775891286038e-05,0.004749328199732649
35.0,False,0.017477391019810447,0.023992772735637706,0.7647846638407255,0.55,0.0,04043,False,0.0007821160694610577,4.223308530236351e-05,0.004749328199732649
36.0,False,0.014438558937855816,0.022132290367530068,0.6764688025018094,0.5643564356435643,0.0,04043,False,0.0005009895822509849,3.901845359629551e-06,0.004749328199732649
37.0,False,0.016033810669291892,0.020724449423246888,0.7324968814823152,0.4,0.0,04043,False,0.0005204132057287867,2.117756658532975e-05,0.004749328199732649
38.0,False,0.01942130581605439,0.019279480303886345,0.7893101592055151,0.46078431372549017,0.0,04043,False,0.0006103954957645249,0.00011417037513220756,0.004749328199732649
39.0,False,0.07015286405951136,0.11135575651949257,0.8500081680498002,0.55,0.0594059405940594,04043,False,0.10611731955807241,0.0048687982807777835,0.008854193989325649
40.0,False,0.05684467467874076,0.07500189270041249,0.910855094452994,0.5050505050505051,0.03,04043,False,0.0392850796775146,0.01187564765195378,0.006507017233242329
41.0,False,0.08364097262389454,0.06810090517151193,0.9166781097209548,0.5050505050505051,0.06,04043,False,0.05824264069239096,0.04228336169731364,0.008909389885129307
42.0,False,0.016387773262989548,0.022451692086905065,0.7481608825824716,0.43137254901960786,0.0,04043,False,0.0006254080398971863,2.9339663609787162e-05,0.004749328199732649
43.0,False,0.01695463571568107,0.024293594526873016,0.736313435525126,0.5544554455445545,0.0,04043,False,0.0007640512410390609,2.0638008554762653e-05,0.004749328199732649
44.0,False,0.016412112503445157,0.02370298477941895,0.7323113954214024,0.45,0.0,04043,False,0.0006939624075863099,1.971684217342733e-05,0.004749328199732649
45.0,False,0.01797601575447589,0.025932918069957515,0.7883687830670586,0.49,0.0,04043,False,0.0009449394268227052,7.777668719119294e-05,0.004749328199732649
46.0,False,0.01929621684458264,0.0244511246132816,0.7949932586256934,0.45918367346938777,0.0,04043,False,0.0009437380268458526,0.00011290719079610844,0.004749328199732649
47.0,False,0.01874832195528339,0.024231814173308688,0.7246386092473768,0.6,0.009900990099009901,04043,False,0.0008876934436693781,2.0696665485703887e-05,0.005269753772872756
48.0,False,0.15356025559359088,0.1983898497271559,0.8775911952983839,0.52,0.04950495049504951,04043,True,0.5398133553505129,0.037233276408122074,0.00798262024269484
49.0,False,0.014139892460689519,0.021379651828729532,0.6847910049897323,0.49514563106796117,0.0,04043,False,0.00045463631967533076,4.88962818352866e-06,0.004749328199732649
50.0,False,0.20910826508918157,0.23586261605350411,0.7316849470900298,0.5408163265306123,0.06060606060606061,04043,True,0.7231029745152517,0.0029478687135397305,0.008966052237723064
51.0,False,0.015574815698040754,0.01741086899536286,0.7186911905711804,0.4,0.0,04043,False,0.00035890142371665677,1.5951434170860106e-05,0.004749328199732649
52.0,False,0.01273695137732724,0.018362783000119235,0.6310114853776841,0.42857142857142855,0.0,04043,False,0.0002909655399919627,1.341793353343505e-06,0.004749328199732649
53.0,False,0.014958567851594691,0.021719012278295598,0.7313728919686134,0.5288461538461539,0.0,04043,False,0.0005106547763345257,1.5082365017203035e-05,0.004749328199732649
54.0,False,0.014439509804405424,0.022174094034397303,0.6724650770770229,0.4666666666666667,0.0,04043,False,0.0005028172378446505,3.9351449104395045e-06,0.004749328199732649
55.0,False,0.014285714285714216,0.020935367241940207,0.6879183150912493,0.4519230769230769,0.0,04043,False,0.000444031872020332,5.669800091102445e-06,0.004749328199732649
56.0,False,0.015566919842090307,0.02133021160326172,0.7335463910037304,0.4563106796116505,0.0,04043,False,0.0005248836330252119,1.8848224529580183e-05,0.004749328199732649
57.0,False,0.014776011147285982,0.021051758329967016,0.7227994385040041,0.375,0.0,04043,False,0.000472600466128758,1.4378881970041645e-05,0.004749328199732649
58.0,False,0.014702429532891168,0.022433997464129024,0.6918763221595591,0.4854368932038835,0.0,04043,False,0.000528406875718915,6.1684910060025e-06,0.004749328199732649
59.0,False,0.014764691786906257,0.022378014367645686,0.688946671738151,0.46601941747572817,0.0,04043,False,0.0005293685898615702,5.957971665879287e-06,0.004749328199732649
60.0,False,0.11051931147272796,0.1838416811563494,0.8571925214334148,0.51,0.0594059405940594,04043,False,0.37990394362335805,0.012903925694773544,0.008854193989325649
61.0,False,0.018845879289726315,0.026019573750612143,0.7733804345800943,0.48514851485148514,0.0,04043,False,0.0010225876158572226,6.225654112052506e-05,0.004749328199732649
62.0,False,0.014841597927041731,0.021920909241358127,0.727379364088459,0.45544554455445546,0.0,04043,False,0.0005133545039379002,1.4521830304647686e-05,0.004749328199732649
63.0,False,0.01494342200957733,0.020147663512475582,0.6890193956866872,0.46534653465346537,0.0,04043,False,0.000442855351869173,6.486911770051042e-06,0.004749328199732649
64.0,False,0.02178590967458051,0.01970933761602217,0.8273650203168598,0.42424242424242425,0.0,04043,False,0.0007592365819280449,0.00035639067456128,0.004749328199732649
65.0,False,0.26113172334426116,0.38428612870000023,0.788631473435,0.4742268041237113,0.061224489795918366,04043,True,0.9018827845957752,0.014395154595227834,0.009024239068847688
66.0,False,0.016112050021264705,0.02059862967988282,0.7197429484735448,0.5196078431372549,0.0,04043,False,0.0005183719690789284,1.4324646971539443e-05,0.004749328199732649
67.0,False,0.19836257363440113,0.2702949579313821,0.7510162838848932,0.42424242424242425,0.07,04043,True,0.7566515615386736,0.004520161473379832,0.009891373415864008
68.0,False,0.0153161845998343,0.019641469285284898,0.7059614534243471,0.44554455445544555,0.0,04043,False,0.00043853467478787686,1.0358279584059042e-05,0.004749328199732649
69.0,False,0.013920587996457274,0.01935955484008135,0.6750926906786484,0.54,0.0,04043,False,0.00036841655899668324,3.82503422571415e-06,0.004749328199732649
70.0,False,0.015789384932257577,0.019934136873951826,0.6912374114183019,0.45,0.0,04043,False,0.00047249784113737525,7.90097616536731e-06,0.004749328199732649
71.0,False,0.01578290673691075,0.020890504059860125,0.7343287200170373,0.33,0.0,04043,False,0.0005155908799218006,2.27383910284673e-05,0.004749328199732649
72.0,False,0.01435991791105554,0.019075251552417065,0.6898208590429293,0.45544554455445546,0.0,04043,False,0.0003758905412069558,6.263737302565499e-06,0.004749328199732649
73.0,False,0.015632169087095787,0.021152008400527604,0.6964076817895063,0.39,0.0,04043,False,0.0005200251921971112,8.924620558981784e-06,0.004749328199732649
74.0,False,0.015262849483020828,0.019441602719353017,0.7329303902806582,0.32673267326732675,0.0,04043,False,0.0004278956467231715,2.1259958751683947e-05,0.004749328199732649
75.0,False,0.013072539150264774,0.019892868164106275,0.6439842166131183,0.51,0.0,04043,False,0.00035192671200346966,1.680364636629327e-06,0.004749328199732649
76.0,False,0.013134861569533576,0.02004943517547953,0.67093054149992,0.47,0.0,04043,False,0.0003597666057256688,3.213738940599845e-06,0.004749328199732649
77.0,False,0.01303498548183331,0.018258600078990835,0.6359621373040698,0.37,0.0,04043,False,0.00029831324861434274,1.6816721662370887e-06,0.004749328199732649
78.0,False,0.016220611585969807,0.02232027961361761,0.7592273915488947,0.41414141414141414,0.0,04043,False,0.0006088734753400269,3.744022776749511e-05,0.004749328199732649
79.0,False,0.01697448900792237,0.022754392745074906,0.7554767042972212,0.37373737373737376,0.0,04043,False,0.0006769991132947131,3.941809193854087e-05,0.004749328199732649
80.0,False,0.013753585976748124,0.019129147921646016,0.6380789034222804,0.43,0.0,04043,False,0.00035360010696774605,1.8319402791971366e-06,0.004749328199732649
81.0,False,0.016087419207883803,0.020888227139974177,0.7295297645407427,0.42424242424242425,0.0,04043,False,0.0005308759819337403,1.9410332111994222e-05,0.004749328199732649
82.0,False,0.01501940113790152,0.0208271162875449,0.6891308050981686,0.5151515151515151,0.0,04043,False,0.00047498168035829577,6.148636984801506e-06,0.004749328199732649
83.0,False,0.023939472858447428,0.021459392598414558,0.8361422953441383,0.40625,0.0,04043,False,0.0010295827824526788,0.0005242609543649949,0.004749328199732649
84.0,False,0.016172690614553103,0.018414755186128614,0.7370892821874391,0.3333333333333333,0.0,04043,False,0.00042251356354091756,2.7236512066009256e-05,0.004749328199732649
85.0,False,0.018911404572824506,0.020346267938306493,0.7793260974276705,0.41836734693877553,0.0,04043,False,0.0006481839593785709,8.721419308153249e-05,0.004749328199732649
86.0,False,0.015026009435587694,0.020051875243110827,0.7233326858193214,0.4489795918367347,0.0,04043,False,0.0004426536763841358,1.4397458001808643e-05,0.004749328199732649
87.0,False,0.021520130063464742,0.019432485442686893,0.7766156043250744,0.4166666666666667,0.0,04043,False,0.0007255202156205775,0.00011339091341702356,0.004749328199732649
88.0,False,0.022893583844776112,0.01933539628217482,0.8467718266531523,0.3979591836734694,0.0,04043,False,0.0007905400490457534,0.0006386571365423905,0.004749328199732649
89.0,False,0.01802884235815397,0.018179298010205007,0.773322891435484,0.29896907216494845,0.0,04043,False,0.0004875298451458798,8.179467409922204e-05,0.004749328199732649
90.0,False,0.019510061365628474,0.019770969881137176,0.8228209520208823,0.31958762886597936,0.0,04043,False,0.0006444164203357227,0.0002772931400110556,0.004749328199732649
91.0,False,0.016734996946560443,0.019481405018507442,0.7160337271850118,0.3673469387755102,0.0,04043,False,0.0004949615726977653,1.7278969453902256e-05,0.004749328199732649
92.0,False,0.01760579830638567,0.01902895877467174,0.780002808410104,0.32653061224489793,0.0,04043,False,0.0005120846207803577,8.535696631523214e-05,0.004749328199732649
93.0,False,0.016668337839620097,0.019791060764880346,0.7634129685501633,0.41836734693877553,0.0,04043,False,0.0005067005529376985,4.641232037766127e-05,0.004749328199732649
94.0,False,0.01691723970747647,0.018499168704387673,0.7625483250947539,0.3711340206185567,0.0,04043,False,0.00045673259041925434,5.118646371195119e-05,0.004749328199732649
95.0,False,0.01768699088746475,0.019104486649193553,0.7836934112955505,0.3541666666666667,0.0,04043,False,0.0005195714780118379,9.090073255374806e-05,0.004749328199732649
96.0,False,0.014487280304011306,0.018145353381232448,0.7180858671817254,0.28865979381443296,0.0,04043,False,0.00034693009226830033,1.4590492204984042e-05,0.004749328199732649
97.0,False,0.09958314418152668,0.1407157818790697,0.8152127278730229,0.35051546391752575,0.02040816326530612,04043,False,0.24008421873066788,0.004012322147070796,0.005884180325648093
98.0,False,0.015394125786899224,0.019330424947261674,0.6802898769744281,0.36363636363636365,0.0,04043,False,0.00042893500608774784,6.4740409584902626e-06,0.004749328199732649
99.0,False,0.015480461400444291,0.02132350385350884,0.7416859053085317,0.43434343434343436,0.0,04043,False,0.0005200955411410365,2.281826267361765e-05,0.004749328199732649
100.0,False,0.016167780117116975,0.022367254199886843,0.7285361440754166,0.3939393939393939,0.0,04043,False,0.0006082172909166328,1.9102246151890247e-05,0.004749328199732649
101.0,False,0.01826470308980017,0.022213095307348742,0.8054867308213968,0.40816326530612246,0.0,04043,False,0.0007243477406352842,0.00013924378625872975,0.004749328199732649
102.0,False,0.016696744603262943,0.021326493554947923,0.7618397699096114,0.4639175257731959,0.0,04043,False,0.0005844727243818709,4.131300261095284e-05,0.004749328199732649
103.0,False,0.01956900584370093,0.025373394595163013,0.820382054999159,0.4742268041237113,0.0,04043,False,0.001033673968927404,0.00019846133651427986,0.004749328199732649
104.0,False,0.019375457826222606,0.01888527121758024,0.8215650023276752,0.4387755102040816,0.0,04043,False,0.0005850610252230782,0.00024101047716458893,0.004749328199732649
105.0,False,0.015535188069132165,0.019853861784502835,0.7179956646187482,0.41237113402061853,0.0,04043,False,0.0004573621623998407,1.4393655019843779e-05,0.004749328199732649
106.0,False,0.017547925422926804,0.023060392946163348,0.7635859276149543,0.4020618556701031,0.0,04043,False,0.0007305981367220398,4.9201475404827415e-05,0.004749328199732649
107.0,False,0.021391764425728117,0.02508543744564283,0.8399651365493526,0.3402061855670103,0.0,04043,False,0.0011603772187814498,0.00043416099211916086,0.004749328199732649
108.0,False,0.01727530015683967,0.022314276114030064,0.7489237121316082,0.27835051546391754,0.0,04043,False,0.0006705333901369579,3.944863899361922e-05,0.004749328199732649
109.0,False,0.016894580756867447,0.022744690861011958,0.7652193907168947,0.3917525773195876,0.0,04043,False,0.000671562380443749,4.759680038496551e-05,0.004749328199732649
110.0,False,0.01766260785551682,0.023276747634936777,0.7324082526254143,0.38144329896907214,0.0,04043,False,0.0007509989615283044,2.5311063662275472e-05,0.004749328199732649
111.0,False,0.01757825617947491,0.023463285193963148,0.7761525520689573,0.40816326530612246,0.0,04043,False,0.0007567301351857409,6.439303446510565e-05,0.004749328199732649
112.0,False,0.017285071349271514,0.022967859329496375,0.7440450316977731,0.41237113402061853,0.0,04043,False,0.0007084591215579077,3.0476472856604493e-05,0.004749328199732649
113.0,False,0.01957078699394888,0.0250597224501188,0.81475362973154,0.40816326530612246,0.0,04043,False,0.0010099849542833884,0.00018838474005650936,0.004749328199732649
114.0,False,0.019565836304646925,0.023752608626639048,0.8619850693815678,0.44329896907216493,0.0,04043,False,0.0009131050403221855,0.0005359093011957379,0.004749328199732649
115.0,False,0.018457999204505554,0.02262848418321879,0.8261922899883999,0.3877551020408163,0.0,04043,False,0.0007622113773647634,0.00022888045507083268,0.004749328199732649
116.0,False,0.018751573366037378,0.02344409404764362,0.7955181136470898,0.42857142857142855,0.0,04043,False,0.0008345709856829367,0.00011277823785319384,0.004749328199732649
117.0,False,0.01744073648480494,0.020710910874167585,0.7847815247517547,0.3163265306122449,0.0,04043,False,0.0005916269679293392,8.980695026724066e-05,0.004749328199732649
118.0,False,0.0162826904972237,0.01826229189571823,0.7676300619884484,0.32653061224489793,0.0,04043,False,0.00042033830498524347,5.529873458741784e-05,0.004749328199732649
119.0,False,0.016650589105729904,0.018860963915526923,0.7567774896461683,0.37373737373737376,0.0,04043,False,0.00046218956848161904,4.2837105433007096e-05,0.004749328199732649
0.0,False,0.023973292482274575,0.015232476921944594,0.9110692095977653,0.3382352941176471,0.0,04048,False,0.000830844968243405,0.0039174809489353445,0.0049457003963756675
1.0,False,0.02421030157943194,0.019332978929465058,0.9211980319311377,0.3235294117647059,0.0,04048,False,0.0011968814114729268,0.00459178482171475,0.0049457003963756675
2.0,False,0.12515685444364344,0.1322211607531954,0.9484371908951981,0.4583333333333333,0.0684931506849315,04048,False,0.31508496148792264,0.1543184770073467,0.010101180062574443
3.0,False,0.013401293825621462,0.016173225245002268,0.790953893600791,0.39705882352941174,0.0,04048,False,0.0002967483000858643,6.634072590906972e-05,0.0049457003963756675
4.0,False,0.029931292923351043,0.02075822697239643,0.9282785152071595,0.4714285714285714,0.014084507042253521,04048,False,0.001993307869281068,0.007619918285990537,0.005729616897795719
5.0,False,0.01629983934498743,0.021473537291807995,0.8326681446030131,0.5671641791044776,0.0,04048,False,0.0006524177944044205,0.00018380960451201442,0.0049457003963756675
6.0,False,0.04293811871634958,0.017040922850183077,0.8869356696453184,0.48484848484848486,0.0,04048,False,0.0029896584781476505,0.006357990802413355,0.0049457003963756675
7.0,False,0.019565356780036822,0.02597297849394672,0.8956478704553479,0.5692307692307692,0.030303030303030304,04048,False,0.0012209765336777384,0.0013116355389488608,0.00678636407884032
8.0,False,0.014603467996231691,0.018638318212156967,0.7192843546898914,0.53125,0.0,04048,False,0.00043008312286117744,1.2519498362555391e-05,0.0049457003963756675
9.0,False,0.01394820432632749,0.018128297834748522,0.792313807793948,0.375,0.0,04048,False,0.0003782343207020133,7.2876158108732e-05,0.0049457003963756675
10.0,False,0.16598950397602105,0.15090498078420903,0.6010416648628261,0.42028985507246375,0.2,04048,False,0.4895166938370379,0.00036794992177134936,0.03902146212493716
11.0,False,0.1647284129823168,0.13845573575477937,0.5178596599309466,0.43283582089552236,0.08823529411764706,04048,False,0.4546898681551305,2.367951917480685e-05,0.01239959085106185
12.0,False,0.1117294149430383,0.13939583856703033,0.9175015426357279,0.463768115942029,0.11428571428571428,04048,False,0.2854372846022978,0.08947594915247187,0.016238026327704567
13.0,False,0.016892530077749827,0.016166555389266528,0.8915922496517515,0.42857142857142855,0.0,04048,False,0.0004625970473886567,0.0010217448409992659,0.0049457003963756675
14.0,False,0.01392676903992069,0.013616135974045596,0.795708544057447,0.38095238095238093,0.0,04048,False,0.00024880199799554985,8.874083598497898e-05,0.0049457003963756675
15.0,False,0.017223801181221337,0.022280318378027436,0.8144401750847344,0.3384615384615385,0.030303030303030304,04048,False,0.0007651696109962252,0.0002298153003216151,0.00678636407884032
16.0,False,0.012431043949821722,0.013026936692094775,0.777216272619563,0.36923076923076925,0.0,04048,False,0.00018757322493450425,4.727813596084753e-05,0.0049457003963756675
17.0,False,0.08497916842368063,0.09192641430488532,0.9518475232358359,0.4852941176470588,0.057971014492753624,04048,False,0.11420261260861564,0.08174063457537101,0.009053976812219047
18.0,False,0.025569311858664727,0.029097967226392848,0.8772808482528862,0.3787878787878788,0.029850746268656716,04048,False,0.002405387347498984,0.0018770659068835067,0.006754422676420968
19.0,False,0.015007232097403742,0.01614790343768711,0.8045919033212867,0.36363636363636365,0.0,04048,False,0.00036795103722081697,0.00012068019691503943,0.0049457003963756675
20.0,False,0.0861930817416429,0.09983990921543745,0.89395998811308,0.44776119402985076,0.058823529411764705,04048,False,0.12996879666681604,0.0246740627447605,0.009134659730110708
21.0,False,0.015175437330205911,0.0182858319531832,0.812555605501056,0.546875,0.015384615384615385,04048,False,0.00045034170639848847,0.0001245077373159636,0.005807928063311899
22.0,False,0.0680890052124436,0.09020614207333484,0.796587026330386,0.38461538461538464,0.045454545454545456,04048,False,0.07574359321356866,0.0017177303501486193,0.007947596770754385
23.0,False,0.0170912478378884,0.01862749811901377,0.8513186637843059,0.45454545454545453,0.0,04048,False,0.0005812390427089127,0.00038307617971290487,0.0049457003963756675
24.0,False,0.014197496780765342,0.018890435788383602,0.815388731319548,0.4461538461538462,0.0,04048,False,0.00041545126965516214,0.00011414644703244837,0.0049457003963756675
25.0,False,0.015074150941020529,0.015542448299374054,0.8190504349375257,0.4090909090909091,0.0,04048,False,0.0003510630011114844,0.00016207394252792001,0.0049457003963756675
26.0,False,0.09151264609510781,0.11063336728498736,0.7955337076581476,0.36923076923076925,0.06060606060606061,04048,False,0.16287604012382634,0.003337363470823539,0.009305669371962517
27.0,False,0.0420159831767997,0.06055776602777859,0.8550598732593351,0.49230769230769234,0.030303030303030304,04048,False,0.01784126142366292,0.00208042116640676,0.00678636407884032
28.0,False,0.009075071356181514,0.01118948642218488,0.677991927635843,0.3384615384615385,0.0,04048,False,8.217209382154791e-05,2.8298236885623748e-06,0.0049457003963756675
29.0,False,0.07635276411050405,0.10501671027013873,0.7668854831984211,0.3484848484848485,0.05970149253731343,04048,False,0.112983319133234,0.0012328538870441717,0.009218495673728837
30.0,False,0.07499710318147987,0.11798203665109284,0.8665797813495709,0.4153846153846154,0.045454545454545456,04048,False,0.12721336394860897,0.00868171846681534,0.007947596770754385
31.0,False,0.0860504993706723,0.08876973402083292,0.8154939345221075,0.38461538461538464,0.045454545454545456,04048,False,0.1115268692199858,0.00440634402512465,0.007947596770754385
32.0,False,0.023540374941452964,0.031301552671110594,0.7568553323583451,0.3125,0.03076923076923077,04048,False,0.0022821698115644946,0.00011002659466549846,0.006819445308489028
33.0,False,0.03187563809239915,0.04259607119391578,0.7627586270008924,0.3230769230769231,0.030303030303030304,04048,False,0.006367069356591877,0.00020777143459272066,0.00678636407884032
34.0,False,0.09441950465401382,0.10489446680647868,0.9537935478986088,0.36764705882352944,0.08695652173913043,04048,False,0.1605232751005977,0.1385078362307111,0.012236202659814104
35.0,False,0.019844106630149804,0.016256851249958182,0.8688322469750519,0.43478260869565216,0.0,04048,False,0.0006353143142330329,0.0008597740341805475,0.0049457003963756675
36.0,False,0.10414293043029473,0.1356201541927299,0.8828630867864146,0.37681159420289856,0.08571428571428572,04048,False,0.25112243982371163,0.03377252819115553,0.012079519303370694
37.0,True,0.3037518043036815,0.3197413762414999,0.8512699527709682,0.6,0.6776859504132231,04048,True,0.9011682588494435,0.9015587119607634,0.8597131348548788
38.0,True,0.4086232149331202,0.345681255813874,0.7541381341910095,0.6306306306306306,0.5714285714285714,04048,True,0.9475179693300277,0.4413573995420428,0.6675165249432927
39.0,False,0.01888708232425504,0.019927188606841426,0.8653153742530375,0.375,0.0,04048,False,0.00077660162166931,0.000701457310951548,0.0049457003963756675
40.0,False,0.09577591020024392,0.11033157946068886,0.896074973951752,0.43283582089552236,0.08823529411764706,04048,False,0.17458351873498337,0.039313969490100784,0.01239959085106185
41.0,False,0.014788167724565468,0.015440446511434662,0.8727699806802666,0.32786885245901637,0.0,04048,False,0.000335163012315794,0.000581450040579178,0.0049457003963756675
42.0,False,0.13612745496216988,0.08999466576613233,0.8046960627929116,0.4117647058823529,0.10144927536231885,04048,False,0.2360852174741574,0.013831728336679493,0.014219227040047511
43.0,False,0.1642370046652175,0.187601423179539,0.5171876172219761,0.40298507462686567,0.20588235294117646,04048,True,0.5631764826473639,5.25328767505117e-05,0.041405172880437005
44.0,False,0.1046597385405506,0.1574927630254666,0.8836228985324238,0.4393939393939394,0.1044776119402985,04048,False,0.2961311747153744,0.03461047335459425,0.014671984294239413
45.0,False,0.012164533242305691,0.013419058813204557,0.7421792371735123,0.3076923076923077,0.0,04048,False,0.00018785026347393092,2.1842873644986936e-05,0.0049457003963756675
46.0,False,0.06633416396470297,0.09240362774113792,0.695640146581788,0.3939393939393939,0.029850746268656716,04048,False,0.0746882531190095,0.00014412588965966893,0.006754422676420968
47.0,False,0.32784136739221187,0.13566857954322611,0.5333068840835633,0.42168674698795183,0.2619047619047619,04048,False,0.7522701962286771,0.0005989689893890028,0.0721780035632372
48.0,False,0.3494669702082758,0.1798319523447502,0.6814803992192479,0.5128205128205128,0.31645569620253167,04048,True,0.8379543729648318,0.02281100496435401,0.12123356597863878
49.0,False,0.08789775843834943,0.13916704728154977,0.8637431800641108,0.5,0.09523809523809523,04048,False,0.20086744455031882,0.01404729996930184,0.013333269675620379
50.0,False,0.10127012363720873,0.10518243411610698,0.9111052011188024,0.390625,0.03076923076923077,04048,False,0.18008013538838233,0.0427734896902734,0.006819445308489028
51.0,False,0.011214778106110549,0.01306821130637788,0.7220990336280338,0.3333333333333333,0.0,04048,False,0.00015462631055137535,1.1388549672926867e-05,0.0049457003963756675
52.0,False,0.07354672561053216,0.11999088746837663,0.7363021369957988,0.36923076923076925,0.07575757575757576,04048,False,0.12577998148766775,0.0005920422870476794,0.010893259043972167
53.0,False,0.010576920188014389,0.013136580465835176,0.7127506049207918,0.421875,0.0,04048,False,0.00013922962829592827,7.224836652776544e-06,0.0049457003963756675
54.0,False,0.010513826448124357,0.013604218215175205,0.6935169433490114,0.390625,0.0,04048,False,0.0001448168152395532,4.733594936358279e-06,0.0049457003963756675
55.0,False,0.017924012819364815,0.02630668462848643,0.7225861263082403,0.34375,0.03076923076923077,04048,False,0.0010513401962541742,2.915085814173171e-05,0.006819445308489028
56.0,False,0.031067023183360847,0.03044413469297304,0.772516124687459,0.359375,0.03076923076923077,04048,False,0.0037293398084344118,0.0002735735614057695,0.006819445308489028
57.0,False,0.038061826944496384,0.05634758366550515,0.6863426206781634,0.4444444444444444,0.03125,04048,False,0.013349434038846544,4.135033393100025e-05,0.006853728067183623
58.0,False,0.009714716117446434,0.011766498044558323,0.6820608457425579,0.36507936507936506,0.0,04048,False,0.00010075790187462271,3.398245292867463e-06,0.0049457003963756675
59.0,False,0.009832369554144921,0.012507187309201627,0.6822513190265398,0.30158730158730157,0.0,04048,False,0.00011268180559550018,3.6970977694199953e-06,0.0049457003963756675
60.0,False,0.008697579070182973,0.011143685801364886,0.6695385448023005,0.3225806451612903,0.0,04048,False,7.528241367340291e-05,2.1795554737238896e-06,0.0049457003963756675
61.0,False,0.05644768338716045,0.07947549599499959,0.7603146637073988,0.3492063492063492,0.03125,04048,False,0.045394581564779095,0.0005002990515917649,0.006853728067183623
62.0,False,0.02047902951937683,0.028149533765135893,0.7325892630590863,0.3548387096774194,0.031746031746031744,04048,False,0.0014978341010949965,4.704815910291819e-05,0.0068892785642539894
63.0,False,0.01096324855065953,0.012948099935959701,0.7158960105854604,0.3770491803278688,0.0,04048,False,0.0001460609782787839,8.945160683053223e-06,0.0049457003963756675
64.0,False,0.013880356162162986,0.01370353072401445,0.8167538921879792,0.3548387096774194,0.0,04048,False,0.0002495212023742426,0.0001460447873886216,0.0049457003963756675
65.0,False,0.0101965170473664,0.011418038741880254,0.6899850851778677,0.4262295081967213,0.0,04048,False,0.0001058476979680853,4.232184459092993e-06,0.0049457003963756675
66.0,False,0.016486191556627935,0.01297957218805763,0.8788233961689422,0.3870967741935484,0.0,04048,False,0.0003208823198309906,0.0008476110287975628,0.0049457003963756675
67.0,False,0.01426114855078577,0.012761238451522017,0.8305171895493476,0.3333333333333333,0.0,04048,False,0.00023698414422512116,0.00022448717240532468,0.0049457003963756675
68.0,False,0.11679700062632786,0.14757224603925395,0.854001278013957,0.390625,0.07692307692307693,04048,False,0.3209110839140658,0.020231911384319214,0.011025936174815412
69.0,False,0.14637080395273383,0.15651326880245314,0.2539006522389114,0.4626865671641791,0.16176470588235295,04048,False,0.44262435344802975,7.66244769979803e-08,0.026457683653394896
70.0,False,0.016849758126286026,0.013594604420845254,0.8066455980779523,0.3333333333333333,0.0,04048,False,0.00035789259696292685,0.00018311285389149815,0.0049457003963756675
71.0,False,0.03744786167026778,0.03826720036477057,0.703317491094747,0.40298507462686567,0.014705882352941176,04048,False,0.00741708327756136,6.479928673382744e-05,0.005766913183543335
72.0,False,0.1357660181595959,0.15484971073577916,0.40683622107880113,0.39436619718309857,0.125,04048,False,0.4035909674968739,1.6875418913870495e-06,0.018136876228109916
73.0,False,0.02034536817085746,0.014469568101431402,0.8890801642886605,0.3283582089552239,0.0,04048,False,0.000562743020049972,0.001732943608964208,0.0049457003963756675
74.0,False,0.09522700756612264,0.09004070428375378,0.8056290233906765,0.35714285714285715,0.056338028169014086,04048,False,0.13471153032047523,0.004927953746829724,0.008901395967808217
75.0,False,0.13982580003766346,0.18371174343050203,0.5832198036906256,0.5405405405405406,0.17333333333333334,04048,True,0.47863907983944176,0.00010758627941295467,0.02977384906899621
76.0,False,0.06665049862476684,0.09392198499313403,0.9174770862548652,0.4,0.028169014084507043,04048,False,0.07698898576432034,0.020685359616512963,0.006636959038215801
77.0,False,0.1585542278844046,0.15478353230055084,0.3608946058054138,0.4788732394366197,0.1388888888888889,04048,False,0.47674546711242866,8.395860031231545e-07,0.020925465592336205
78.0,False,0.018125761449007242,0.019682624429298582,0.8954937421819243,0.35294117647058826,0.0,04048,False,0.0007048706962822353,0.0013099896497175947,0.0049457003963756675
79.0,False,0.017694070057830143,0.012778702979805377,0.850216612135306,0.36764705882352944,0.0,04048,False,0.0003593110429406586,0.0005357902068300375,0.0049457003963756675
80.0,False,0.025442823120891786,0.015217778230057826,0.9057559998678041,0.36,0.0,04048,False,0.000930036640527954,0.003849139306399453,0.0049457003963756675
81.0,False,0.09248137308744586,0.09719225365555517,0.8329310879759269,0.4084507042253521,0.09722222222222222,04048,False,0.14123940718785752,0.010588987068990838,0.01361019799248732
82.0,False,0.10857144051288009,0.13736448927541164,0.7896790606014906,0.375,0.1095890410958904,04048,False,0.2701103680130624,0.005583552911002043,0.015468601358300903
83.0,False,0.0151476209625361,0.01160716824754236,0.7994994484289251,0.2878787878787879,0.0,04048,False,0.00023184272850775857,0.00014084497182847736,0.0049457003963756675
84.0,False,0.09674154369433197,0.0844870475691467,0.79152441231992,0.34285714285714286,0.056338028169014086,04048,False,0.1276215634187297,0.00389528237864496,0.008901395967808217
85.0,False,0.010695760142228302,0.011744003508702961,0.6762596208953139,0.27941176470588236,0.0,04048,False,0.00012087108473958189,4.110078487515032e-06,0.0049457003963756675
86.0,False,0.020006894985639425,0.029260864390204477,0.7258129649539,0.3235294117647059,0.028985507246376812,04048,False,0.0015150968383289536,3.841170206328845e-05,0.006693732867722958
87.0,False,0.012398424801745246,0.013471343914142926,0.7807847263943594,0.2608695652173913,0.0,04048,False,0.00019595276017573396,5.768221040095146e-05,0.0049457003963756675
88.0,False,0.08412676640079328,0.11825584868156756,0.7724122127795247,0.32857142857142857,0.08450704225352113,04048,False,0.1542320310781175,0.0020335563526780913,0.011929148912722527
89.0,False,0.06409997613079939,0.08887642018710298,0.6595034988145166,0.3382352941176471,0.028985507246376812,04048,False,0.06665825353583461,6.429616218770808e-05,0.006693732867722958
90.0,False,0.011826851283038658,0.011716926152542748,0.758557927255596,0.3235294117647059,0.0,04048,False,0.00014612276915136908,3.099659931711057e-05,0.0049457003963756675
91.0,False,0.016191508938245166,0.023005562840232592,0.7369631212022585,0.391304347826087,0.04285714285714286,04048,False,0.0007119351374877768,3.551288169447557e-05,0.007735383472894904
92.0,False,0.02827013759950939,0.04100840574150275,0.8927101704694165,0.4057971014492754,0.17142857142857143,04048,False,0.004791904800259301,0.008205979511408496,0.029201385070002184
93.0,False,0.031828893647008465,0.04606190432092215,0.8336370141719541,0.4782608695652174,0.12857142857142856,04048,False,0.007108393816217163,0.0017428685717085486,0.01881702607328507
94.0,False,0.05070517425244396,0.07599470920546245,0.8980070609561913,0.42028985507246375,0.11428571428571428,04048,False,0.03498941826344912,0.015534148105317122,0.016238026327704567
95.0,False,0.023167134458715922,0.03350051023130631,0.8797649953136909,0.47058823529411764,0.08695652173913043,04048,False,0.0024423248095151945,0.002082936479594827,0.012236202659814104
96.0,False,0.09332509838465819,0.10677707826079892,0.9455926403475853,0.4927536231884058,0.11428571428571428,04048,False,0.1609901996327506,0.11984942873539728,0.016238026327704567
97.0,False,0.02359619230064529,0.01574074204356489,0.9729503295391788,0.4142857142857143,0.0,04048,False,0.0008452912443915809,0.013523080827954977,0.0049457003963756675
98.0,False,0.14164519105927734,0.11395035307825473,0.9200993190283174,0.4142857142857143,0.028169014084507043,04048,False,0.31975836480472736,0.09442998678990383,0.006636959038215801
99.0,False,0.029708456879315313,0.031146441309013874,0.9100535987293299,0.3582089552238806,0.058823529411764705,04048,False,0.0035384118462405043,0.006775429968502001,0.009134659730110708
100.0,False,0.03229913781082399,0.05125408627844845,0.8303705464189554,0.6176470588235294,0.2608695652173913,04048,False,0.008527283016328739,0.003733679319449994,0.07145331268129433
101.0,False,0.1060009871600205,0.12280864270838687,0.8189357669924888,0.4492753623188406,0.14285714285714285,04048,False,0.23095957765640485,0.012633738989906357,0.02179655926213813
102.0,False,0.09969871166892838,0.10963603148289706,0.8003698332981596,0.4,0.1267605633802817,04048,False,0.18458795022945998,0.007234890561310586,0.018469091265894286
103.0,False,0.04363615364632554,0.05141312250090876,0.9185667027417851,0.49295774647887325,0.027777777777777776,04048,False,0.015164611514598811,0.00992156798798256,0.006609924674633945
104.0,False,0.12494093280035838,0.14927001823721375,0.5327509631847254,0.4520547945205479,0.1891891891891892,04048,False,0.35354744604814187,3.760940693502192e-05,0.034979826954580504
105.0,False,0.18586318110494826,0.21546194858449735,0.5640867393930771,0.6486486486486487,0.38666666666666666,04048,True,0.6666228135976618,0.0005567733823775741,0.22383932586676228
106.0,False,0.0894507622111932,0.09576273958913227,0.8847765907905695,0.4647887323943662,0.2222222222222222,04048,False,0.1311788905107705,0.0738564027162256,0.04877845757898537
107.0,False,0.23823813888426287,0.251662924304807,0.7670724076197314,0.6559139784946236,0.6063829787234043,04048,True,0.801482848112607,0.32420696234501933,0.7434679197424003
108.0,False,0.22183425681819827,0.24934861143416162,0.5170180624215495,0.5238095238095238,0.32941176470588235,04048,True,0.7764537349750573,0.00019887165271756924,0.13649248524370403
109.0,False,0.28819187813382124,0.29298478670949585,0.7367138844960668,0.449438202247191,0.4777777777777778,04048,True,0.8789190515657189,0.14023634237179283,0.42884510469480214
110.0,False,0.24753707746224152,0.18428233887820092,0.6348072091932692,0.5512820512820513,0.379746835443038,04048,True,0.7342286755792221,0.005888063846141915,0.21146714135088202
111.0,False,0.12948093964601454,0.12483938015071384,0.8950182157710748,0.4305555555555556,0.2191780821917808,04048,False,0.31115841226558827,0.16904905848278554,0.04731628828470995
112.0,False,0.11786503843132708,0.15212282969341215,0.8815903715676782,0.5507246376811594,0.17142857142857143,04048,False,0.3344876688798124,0.06185474022733122,0.029201385070002184
113.0,False,0.10955309046547361,0.13553288081728532,0.8276804071594234,0.5211267605633803,0.2361111111111111,04048,False,0.26967259133135374,0.02935959961774979,0.05600951818225909
114.0,False,0.17625282857271166,0.1889951408212823,0.5917739177505454,0.49333333333333335,0.3684210526315789,04048,True,0.5987977759604725,0.0010411651134197126,0.1923130550600063
115.0,False,0.18337085249837107,0.14012052260204014,0.26005734400660757,0.4246575342465753,0.21621621621621623,04048,False,0.510394314384203,2.434414115410425e-07,0.04593368524961325
116.0,False,0.114791951594843,0.13751860182011474,0.6108505261027515,0.323943661971831,0.125,04048,False,0.2920576807879941,0.00013501278661037598,0.018136876228109916
117.0,False,0.09852925267351238,0.08951038756816017,0.8283188145186804,0.38235294117647056,0.08695652173913043,04048,False,0.14148277106938476,0.010857352101582216,0.012236202659814104
118.0,False,0.0944513369139238,0.11163956790136892,0.8753198844224462,0.45714285714285713,0.14084507042253522,04048,False,0.17320137480606204,0.03488313723511043,0.021350535306950223
119.0,False,0.230335180176591,0.10569706549422835,0.6067967299130662,0.44594594594594594,0.14666666666666667,04048,False,0.517446554949129,0.0006427998902049651,0.02266611659457604
0.0,False,0.2796989514758398,0.34002044788098273,0.7121920409211104,0.5238095238095238,0.4117647058823529,04126,True,0.9032094463157732,0.0461373024831262,0.2849029845210097
1.0,True,0.24428685271292225,0.2991870979381304,0.872608025290025,0.4968944099378882,0.4691358024691358,04126,True,0.8559010359920347,0.6783283752827632,0.42167394051520546
2.0,True,0.20463300896260614,0.24195598306248128,0.9562759306291286,0.5096774193548387,0.40384615384615385,04126,True,0.7541475771618581,0.8607898041657189,0.26821735417774734
3.0,True,0.2579235172412005,0.33386113106957255,0.9133048104774683,0.5909090909090909,0.5483870967741935,04126,True,0.8862944639294315,0.9073096293800095,0.62690244830733
4.0,True,0.21242560726445708,0.29260848814413587,0.9492136618859655,0.5705128205128205,0.5987261146496815,04126,True,0.8154407736314472,0.957941483509685,0.7406283696599528
5.0,True,0.22706137503429386,0.3156999736687152,0.9428962561028171,0.6291390728476821,0.6513157894736842,04126,True,0.8491900777449733,0.9698556870763121,0.8324696460115312
6.0,True,0.22870978263683434,0.3204005573946114,0.9531494811264828,0.5986394557823129,0.7027027027027027,04126,True,0.8538010595092589,0.9838722943307375,0.8951590615104617
7.0,True,0.2212573931529713,0.3130498440960185,0.9724878192932643,0.6344827586206897,0.6301369863013698,04126,True,0.8411418289966248,0.9803768502970974,0.7990116296201737
8.0,True,0.22320702665231476,0.3140023357310898,0.9672192240629046,0.6644736842105263,0.7058823529411765,04126,True,0.8439441518260467,0.9876461995247127,0.8982612290052915
9.0,False,0.28818942706757866,0.2066061054101437,0.90441181066317,0.45,0.33663366336633666,04126,True,0.819972088318015,0.7252711285000598,0.15294049198474358
10.0,False,0.17139316977675925,0.22840873392370706,0.7173621792571565,0.34375,0.20618556701030927,04126,True,0.6681635970974088,0.005169307322056704,0.04369259679401294
11.0,True,0.3439503525905025,0.3790664099599071,0.904402228260629,0.4883720930232558,0.5615384615384615,04126,True,0.9420719457711597,0.9406543344756122,0.658696636301721
12.0,True,0.379562485286154,0.32065464575926217,0.7530263736857977,0.6212121212121212,0.6992481203007519,04126,True,0.9378149099709548,0.669907656338042,0.8916942931506285
13.0,False,0.06583353008000252,0.1198089793286036,0.9323766433403304,0.5466666666666666,0.34210526315789475,04126,False,0.10995982830136229,0.22634243917197772,0.1605579375874691
14.0,False,0.12338448998445216,0.13005832114716756,0.9128308164596908,0.46153846153846156,0.08860759493670886,04126,False,0.312421738875656,0.09104567828586772,0.01306713469027907
15.0,False,0.20184667617813867,0.20893589716145372,0.47729140472348336,0.38823529411764707,0.23255813953488372,04126,True,0.7042243423176675,4.542148222497051e-05,0.0568888766196105
16.0,False,0.21708913328335927,0.13196915812943127,0.6685004609526897,0.40229885057471265,0.20454545454545456,04126,False,0.5721410916675685,0.00360609862416062,0.042976349034626195
17.0,True,0.22060771639622598,0.30373857394635684,0.9663371598394972,0.624113475177305,0.6338028169014085,04126,True,0.8340195083753006,0.9784412731957896,0.8051416582874809
18.0,True,0.2858352561080217,0.41288055564325665,0.9462333823601866,0.6766917293233082,0.6119402985074627,04126,True,0.9292559122982043,0.9728735630553593,0.766461796881137
19.0,True,0.21006809417678285,0.31962748742211383,0.950164431285947,0.717391304347826,0.7553956834532374,04126,True,0.8322915578152011,0.9856496457351837,0.9370054263039244
20.0,True,0.18922963283360714,0.25484430244346407,0.988819945685706,0.635036496350365,0.6666666666666666,04126,True,0.741739228337873,0.9869129403372474,0.8538276397628571
21.0,True,0.3851217132631749,0.21014144662047635,0.8743937962753654,0.6020408163265306,0.6060606060606061,04126,True,0.8894165464617986,0.9485593466407638,0.7551925503581297
22.0,False,0.08907722883928675,0.10556360305721726,0.9453534572567699,0.5492957746478874,0.2638888888888889,04126,False,0.1516075264459377,0.2991258503035682,0.07741228709407937
23.0,False,0.03474157795584587,0.03608908314655804,0.9415261581065828,0.4225352112676056,0.06944444444444445,04126,False,0.005772181271861405,0.02105180349427358,0.010704042977216947
24.0,False,0.1514047761429916,0.12877524673323018,0.640230861121525,0.4177215189873418,0.1875,04126,False,0.3961747486552974,0.0008050915416051727,0.03616807847894995
25.0,False,0.2407993988050404,0.26615221357999613,0.807148814373548,0.4444444444444444,0.2087912087912088,04126,True,0.8282362313950764,0.06580604827768662,0.04485397006343593
26.0,False,0.10874763173660844,0.10003865397551572,0.9434638513688967,0.6590909090909091,0.12359550561797752,04126,False,0.19274292223950312,0.17273328027059495,0.018781390225201484
27.0,False,0.18805259127119395,0.19652896288328986,0.8066663004201425,0.4666666666666667,0.2857142857142857,04126,True,0.6547734732864253,0.07907644911702721,0.09551159989625811
28.0,False,0.20777100888385996,0.27632622677544544,0.6677985190428531,0.52,0.33663366336633666,04126,True,0.7950214364501784,0.006012472367984968,0.15294049198474358
29.0,False,0.2812307340679557,0.30655637075525183,0.6500915857167594,0.43023255813953487,0.2988505747126437,04126,True,0.889223091469829,0.005632189697123562,0.10815372017737102
30.0,False,0.17684481465994886,0.19840267819847307,0.7382571516895836,0.4069767441860465,0.25287356321839083,04126,True,0.6317847325256288,0.012986222748397063,0.06952067773625409
31.0,False,0.08105224909632681,0.0772107466751728,0.9319691773227687,0.40860215053763443,0.14893617021276595,04126,False,0.08439711177129099,0.11639054597630052,0.024387786014265805
32.0,False,0.13393055479329838,0.17064222752388666,0.7118045261464999,0.38095238095238093,0.25882352941176473,04126,True,0.4467216819995313,0.004633036786604104,0.07368624036861968
33.0,False,0.11994503848101493,0.14666881367028362,0.9694958229213292,0.3333333333333333,0.08247422680412371,04126,False,0.3418269577452539,0.2379009078770637,0.01225957767868621
34.0,False,0.07142412249991785,0.09826704136775591,0.9118959184314716,0.21359223300970873,0.038461538461538464,04126,False,0.09566748921107351,0.02595062714567424,0.007746364804708145
35.0,False,0.15354513807282213,0.1800973762696128,0.7384141321043338,0.45054945054945056,0.2717391304347826,04126,True,0.5313097154787778,0.011569957217334274,0.08352872199823767
36.0,False,0.16541947861700196,0.2198613788772425,0.7019293523913973,0.6236559139784946,0.3191489361702128,04126,True,0.639765433120063,0.007446631583238089,0.13057193316803337
37.0,False,0.17127732628766554,0.2197542073125665,0.6870777789209198,0.3958333333333333,0.21649484536082475,04126,True,0.654454626169355,0.0028643006794195625,0.048461994402716514
38.0,False,0.14413744215485474,0.15435654688267358,0.8001195084124887,0.37777777777777777,0.16483516483516483,04126,False,0.44220412322430436,0.019164674754128728,0.028706696660168552
39.0,False,0.2082548876583856,0.32994335340938113,0.7309465646234758,0.4631578947368421,0.28125,04126,True,0.8368588156988798,0.014857945072467772,0.09152544352393606
40.0,False,0.07921430722132229,0.08202848093878251,0.793462263530086,0.30851063829787234,0.06315789473684211,04126,False,0.0884254611562066,0.003054666806800314,0.010025013226054978
41.0,False,0.13772368280411765,0.16321369396508495,0.8240633614906216,0.4222222222222222,0.0989010989010989,04126,False,0.442563301524589,0.01714609338329251,0.014541979294712055
42.0,False,0.1634378304111728,0.1808483336515104,0.648417566466323,0.30927835051546393,0.14285714285714285,04126,True,0.5618428792370401,0.0007121844431429436,0.022909647492547418
43.0,False,0.1356694726126064,0.13846091119811652,0.7989710646148546,0.4731182795698925,0.2127659574468085,04126,False,0.37422593572610047,0.024059467029168693,0.046682396830591215
44.0,False,0.11660189466572755,0.16975696752871453,0.9458399987449021,0.3333333333333333,0.09278350515463918,04126,False,0.3819801577599178,0.14976384891285116,0.013646772673167593
45.0,False,0.14045989594619276,0.17473721113906143,0.6779409614702785,0.4387755102040816,0.24242424242424243,04126,True,0.4779917428402915,0.0020718283911702966,0.06272880904356967
46.0,False,0.13652436634894327,0.11857249146092716,0.5510377837980307,0.37623762376237624,0.08823529411764706,04126,False,0.3223408471410014,4.453479790810348e-05,0.01301665248819828
47.0,False,0.13174307906571348,0.16962850278237915,0.8335115016096051,0.41237113402061853,0.22448979591836735,04126,False,0.4368456501714029,0.04813563021767522,0.05249677540765692
48.0,False,0.20171077773336768,0.3124245937454175,0.9373568558824446,0.375,0.14432989690721648,04126,True,0.8161757314910696,0.3344948594728045,0.023259517371261182
49.0,False,0.24301212323834004,0.3339194444042573,0.8807757188411808,0.5478260869565217,0.5086206896551724,04126,True,0.8746071169825551,0.7591745997373908,0.5249891560044331
50.0,True,0.2473330121520163,0.32809741476010557,0.9514555117595318,0.5424836601307189,0.6103896103896104,04126,True,0.8752272385914847,0.9717613260805591,0.7635250725799319
51.0,True,0.33037094141784945,0.38393746139761326,0.9103633714561975,0.6573426573426573,0.7222222222222222,04126,True,0.9389663347846253,0.9815755755196249,0.9129486503434903
52.0,True,0.181677263969582,0.24442151480948138,0.9706148031149741,0.6133333333333333,0.6423841059602649,04126,True,0.7138261136952151,0.9753194345152051,0.8189341975310893
53.0,True,0.19862996707376293,0.27106860680650585,0.971999509344238,0.5782312925170068,0.6756756756756757,04126,True,0.7758242152271763,0.9838988497718814,0.8652790468952113
54.0,True,0.298172591385547,0.42577528519781593,0.8959283692827511,0.6232876712328768,0.673469387755102,04126,True,0.9371493022770911,0.9539937960934008,0.8625466609749587
55.0,True,0.21260123000947298,0.2947816660278804,0.9236886241202055,0.6216216216216216,0.610738255033557,04126,True,0.8173936181333249,0.9329583729695661,0.7641875578806075
56.0,False,0.35518274989145876,0.27885820514332493,0.8955730328909215,0.7830188679245284,0.7757009345794392,04126,True,0.9147074813012689,0.9868118017270691,0.9485118198751901
57.0,False,0.0896836171179337,0.16623816732082247,0.9628732901873225,0.8028169014084507,0.7222222222222222,04126,False,0.2680386891325346,0.9403186120573997,0.9129486503434903
58.0,False,0.10100900797852946,0.11436768933229313,0.9227508941218183,0.44,0.23684210526315788,04126,False,0.20381678542918347,0.21508992392146056,0.05935911607784799
59.0,False,0.1457830428620774,0.13253858164722618,0.550146762321307,0.4025974025974026,0.11538461538461539,04126,False,0.38995640721199015,5.794621229640764e-05,0.0172519988531797
60.0,False,0.2750324858060213,0.3360627440903259,0.7041183639657191,0.4268292682926829,0.3373493975903614,04126,True,0.8987821976468062,0.022480007857421793,0.15391982301734725
61.0,False,0.2975216474493056,0.4468503343414369,0.6510853801076754,0.45161290322580644,0.2978723404255319,04126,True,0.9411976693434342,0.0053391325304224585,0.10716374149407695
62.0,False,0.10509014109512037,0.11041115242622213,0.9098267082221239,0.27184466019417475,0.07692307692307693,04126,False,0.2069900921145363,0.06623450692987322,0.011571285329953817
63.0,False,0.15759668196424012,0.2723948137766321,0.7907134755633957,0.4631578947368421,0.21875,04126,True,0.6934402156907408,0.020980806900588796,0.04956931247393615
64.0,False,0.2211304429245396,0.26598713832209925,0.725549251993166,0.4742268041237113,0.2857142857142857,04126,True,0.8042129336816249,0.017017743319635258,0.09551159989625811
65.0,False,0.19676068071074632,0.22845958670409713,0.8005808004892291,0.5280898876404494,0.37777777777777777,04126,True,0.7228020096473752,0.13208095101746867,0.21784011176927393
66.0,False,0.11783664177562261,0.15227017716027125,0.8439164978487596,0.6805555555555556,0.4794520547945205,04126,False,0.34747276267353,0.25373132447377394,0.4483768575123664
67.0,False,0.07602295818323566,0.12288054441503786,0.913117418987803,0.7464788732394366,0.5416666666666666,04126,False,0.14396961482463538,0.5227183118724777,0.6102007252461671
68.0,False,0.046949510607619094,0.06378334416123616,0.903755608065129,0.5,0.2112676056338028,04126,False,0.024084123409260808,0.03711014998656255,0.04598496033811356
69.0,False,0.06359188174230583,0.09060164529252457,0.9422690209402778,0.5555555555555556,0.3287671232876712,04126,False,0.06981010123070168,0.2580621790068559,0.14251083682412857
70.0,False,0.1629134304384242,0.18583966711175476,0.7082550689366689,0.52,0.3684210526315789,04126,True,0.5707439344690189,0.013521228347474358,0.20151307604658888
71.0,False,0.23010399277065072,0.22118016909155416,0.7815339413257939,0.5487804878048781,0.43373493975903615,04126,True,0.7686929127208216,0.1764888608443594,0.33429371118563445
72.0,False,0.20465283738373571,0.21662649829442326,0.7344663224462575,0.4111111111111111,0.26373626373626374,04126,True,0.7209983298728126,0.01679956059199792,0.0772975367302352
73.0,False,0.13269747715116353,0.1590578138995602,0.8294422360425833,0.42857142857142855,0.18478260869565216,04126,False,0.4157289951396827,0.03425223360275298,0.035183326877642855
74.0,False,0.19542156559159202,0.2858660625098276,0.6091956463985184,0.4787234042553192,0.21052631578947367,04126,True,0.7847434849328803,0.0005529827534751664,0.04564359035320585
75.0,False,0.24094764187606396,0.25013551735206685,0.8191270597273121,0.5747126436781609,0.38636363636363635,04126,True,0.8142711336540892,0.2604920667500782,0.2336433500457034
76.0,False,0.13352201521614537,0.17799811502774104,0.7063152292744905,0.6986301369863014,0.6081081081081081,04126,True,0.4615410177456904,0.04949513914496425,0.7591581738815399
77.0,False,0.17614916525581267,0.21253111589740278,0.7257067691164131,0.6756756756756757,0.56,04126,True,0.6545881152806352,0.08378247242508388,0.6550438269450336
78.0,False,0.17581100140510933,0.21394664549242007,0.7539276033477639,0.5921052631578947,0.5714285714285714,04126,True,0.6561032861521767,0.1601342475335034,0.6817176548933139
79.0,False,0.07558458329291272,0.11453776744164906,0.8628415821214621,0.5774647887323944,0.4583333333333333,04126,False,0.129810387131562,0.1711576977220109,0.3941975275793946
80.0,False,0.09329245004617594,0.1479991764127165,0.8918521873641141,0.6111111111111112,0.547945205479452,04126,False,0.24765295989541053,0.5143086474209736,0.6258130188408184
81.0,False,0.21066264793280304,0.2153117821184255,0.7268627468841985,0.5769230769230769,0.3924050632911392,04126,True,0.7298981965293487,0.03739924598226359,0.2452312658037252
82.0,False,0.24558406914341166,0.25846566082375716,0.7511260102574312,0.41935483870967744,0.30851063829787234,04126,True,0.8269977249764223,0.04463579576654677,0.11836779553957358
83.0,False,0.3760763008370717,0.48949351257881485,0.8226979164479178,0.5833333333333334,0.5529411764705883,04126,True,0.9661922557641339,0.7153790743359311,0.6380533425835134
84.0,False,0.2710423142851927,0.2719978703997833,0.7518853174544843,0.4772727272727273,0.19101123595505617,04126,True,0.8615452478244249,0.02217073121878516,0.037479847683138966
85.0,False,0.14683829943719023,0.16481765282547078,0.7103286357411142,0.5824175824175825,0.2717391304347826,04126,False,0.476086165890767,0.00566432974237819,0.08352872199823767
86.0,False,0.2087204629826084,0.32641096020875326,0.8839084141491089,0.6352941176470588,0.16279069767441862,04126,True,0.835141150282877,0.14529757107196112,0.02811224489301177
87.0,False,0.1520361074395878,0.13407099710280607,0.6180700590542998,0.36363636363636365,0.14606741573033707,04126,False,0.41311554771180775,0.0003624595226664062,0.023678995129355694
88.0,False,0.15110586496656161,0.17080233362670674,0.6017868680772064,0.37894736842105264,0.17708333333333334,04126,True,0.5033025807980124,0.0002808638473212604,0.03253155585852885
89.0,False,0.19027473524735267,0.1933408550477136,0.8404797524104356,0.45348837209302323,0.3448275862068966,04126,True,0.6540021440027626,0.22846257782620016,0.16446082388511105
90.0,False,0.1835122190650261,0.21221460795423386,0.8720771633354965,0.31868131868131866,0.15217391304347827,04126,True,0.6711847723310195,0.11246639078196233,0.025212602742135572
91.0,False,0.12887109454071863,0.14549926834152946,0.9366380747470269,0.5316455696202531,0.25,04126,False,0.36973979151034053,0.37172652512025467,0.06758785750383041
92.0,False,0.09916871365899531,0.1543486014584803,0.8631744732884001,0.6714285714285714,0.5352112676056338,04126,False,0.2825747581145633,0.3569305306673039,0.5939099940649516
93.0,False,0.10733991646245988,0.14501907241717565,0.8721238437341038,0.7945205479452054,0.7432432432432432,04126,False,0.2930960464392976,0.7948001826258666,0.9290128104299791
94.0,False,0.07399502300863779,0.12304994071112384,0.9173228689305444,0.7285714285714285,0.6901408450704225,04126,False,0.13810294067769238,0.780987000945271,0.8820748468128782
95.0,False,0.20033229421094073,0.23032821290042035,0.677385974851134,0.6933333333333334,0.5921052631578947,04126,True,0.7319802197495686,0.04786355845530642,0.7270072226006317
96.0,False,0.16772982895113991,0.24169169396084852,0.7940929139976678,0.5142857142857142,0.3380281690140845,04126,True,0.6785698061877353,0.06381822688839918,0.15485331216422726
97.0,False,0.13422359344554222,0.1727985899643563,0.7949527046517096,0.6571428571428571,0.3380281690140845,04126,True,0.45255604587659637,0.0463017947624853,0.15485331216422726
98.0,False,0.08936312902934557,0.1348936514359343,0.9016161752765354,0.5970149253731343,0.4117647058823529,04126,False,0.20824230392187634,0.3075442953572166,0.2849029845210097
99.0,False,0.08425914521310161,0.13396593008867635,0.880916176483307,0.6060606060606061,0.4626865671641791,04126,False,0.18903949139433243,0.26857142304819376,0.40520020079790336
100.0,False,0.09015978525539903,0.1451092913711722,0.8315858858635978,0.7164179104477612,0.6176470588235294,04126,False,0.2304702096734921,0.30124784804610955,0.7770497763799131
101.0,False,0.19317297957354715,0.22302376735722437,0.7782470824574065,0.46835443037974683,0.4,04126,True,0.7081903274046826,0.09870466892667085,0.2603399558990884
102.0,False,0.16838140240472255,0.17369109732113888,0.6803980996004256,0.5526315789473685,0.44155844155844154,04126,True,0.5601353568238868,0.013977123209922967,0.3528777580780262
103.0,False,0.07034980013317753,0.10396612767558984,0.8889232310315821,0.6428571428571429,0.3380281690140845,04126,False,0.10090845852875333,0.11399492156713838,0.15485331216422726
104.0,False,0.0629803535774229,0.0985354176189368,0.923112636915048,0.625,0.4931506849315068,04126,False,0.07745740016774587,0.424430575666347,0.48427378512330677
105.0,False,0.09710744469497853,0.1443343963201914,0.892837194114224,0.6571428571428571,0.4084507042253521,04126,False,0.2544306225243928,0.28672039418658585,0.277844241679142
106.0,False,0.18649412839653218,0.23405409557503715,0.7034429563639142,0.6486486486486487,0.5733333333333334,04126,True,0.7100688751803585,0.06304117645519709,0.6860554404475723
107.0,False,0.10855877272080591,0.1629895503539254,0.9033562707067545,0.5797101449275363,0.4857142857142857,04126,False,0.336713856071636,0.5291771276867996,0.4647429017660632
108.0,False,0.1286935318206857,0.2167968453908698,0.8698078366787001,0.8115942028985508,0.7571428571428571,04126,True,0.5207376062009653,0.8309085230780209,0.938083120365357
109.0,False,0.08897910101321216,0.14880332716116204,0.8106878147052903,0.7313432835820896,0.6176470588235294,04126,False,0.23302657957188752,0.20614303918220628,0.7770497763799131
110.0,False,0.16556417067463863,0.1848293109684866,0.7872966835815263,0.7464788732394366,0.6388888888888888,04126,True,0.5760586537689294,0.37420077203741303,0.8134103010070382
111.0,False,0.08473214944599426,0.14192724391455722,0.9121437906058679,0.8285714285714286,0.6619718309859155,04126,False,0.20485873583543593,0.7540370211434952,0.8475465019848744
112.0,False,0.1253583108014707,0.1990532593494038,0.949508289642234,0.5942028985507246,0.4714285714285714,04126,True,0.47536135138418917,0.7735976007372711,0.427574816676308
113.0,False,0.07846733302415647,0.13772148645599655,0.8598285817526331,0.7746478873239436,0.5833333333333334,04126,False,0.17558449764093081,0.3173080237481777,0.7082882486765549
114.0,False,0.06909111297994319,0.1223857447158007,0.880456274004085,0.7571428571428571,0.5352112676056338,04126,False,0.122626185438844,0.2926729170797832,0.5939099940649516
115.0,False,0.07199066642296166,0.11686270305357199,0.877130067040738,0.7285714285714285,0.43661971830985913,04126,False,0.12318949788760533,0.16885653900429956,0.34109024852708386
116.0,False,0.12747678339473525,0.10673430830813213,0.8992803923162915,0.4444444444444444,0.12195121951219512,04126,False,0.2622077810922324,0.10180546753713014,0.018464826906583125
117.0,False,0.08712342536832976,0.10102679580336256,0.9400276545207864,0.45569620253164556,0.2625,04126,False,0.13803534271131418,0.27456404744165297,0.0763737884951479
118.0,False,0.12089911606016632,0.14048904682413854,0.8936484045045323,0.49295774647887325,0.3194444444444444,04126,False,0.3302282262850542,0.2599916463037466,0.13092573329335883
119.0,False,0.15792516533885487,0.24326440016237663,0.8644083019347412,0.6764705882352942,0.6521739130434783,04126,True,0.65579551533161,0.7483536667350946,0.8337265756664175
0.0,False,0.031117823886210958,0.037077461169395615,0.9444706267439607,0.6065573770491803,0.1935483870967742,04746,False,0.004407974592037033,0.03640790659717289,0.03871803972673564
1.0,False,0.02951911187074232,0.0418577818940864,0.8980507102270374,0.65,0.21311475409836064,04746,False,0.004887562951730559,0.011879897494305094,0.0470324865160244
2.0,False,0.030984657721809236,0.03990938760996929,0.8697112624849039,0.6612903225806451,0.15873015873015872,04746,False,0.004931589475695051,0.004886144984302545,0.027289336338797276
3.0,False,0.3114411036732094,0.23736080600487836,0.7166005854909063,0.6081081081081081,0.41333333333333333,04746,True,0.8527608365970407,0.08131525692648559,0.28307988797930317
4.0,False,0.14129622844291423,0.12267788645196813,0.9382095641839956,0.6268656716417911,0.3088235294117647,04746,False,0.3222264470571373,0.566259612029379,0.11766882995188813
5.0,False,0.21394588620529262,0.16562974156459437,0.6067452577866272,0.5068493150684932,0.2702702702702703,04746,False,0.6208106511308918,0.0014567432442893775,0.08202737418140314
6.0,False,0.046367803483391284,0.032828446513096105,0.9159099925991754,0.6206896551724138,0.13559322033898305,04746,False,0.007371184713490935,0.03616124523412287,0.02158584757738758
7.0,False,0.1257038345674366,0.14679833411817944,0.942407187862555,0.6721311475409836,0.24193548387096775,04746,False,0.34078913591053656,0.35302382581361386,0.06242067308122615
8.0,False,0.11246613969967603,0.11845953207026672,0.9238781022191263,0.42857142857142855,0.125,04746,False,0.22957046997572186,0.13915894141696591,0.019380477584384527
9.0,False,0.1453616738304122,0.16705137451944338,0.9525197625493091,0.5714285714285714,0.234375,04746,False,0.4533238831417793,0.4756269043734612,0.057979943019507436
10.0,False,0.11867030600538285,0.1396437439645716,0.862687414595187,0.4918032786885246,0.16129032258064516,04746,False,0.3004850179075513,0.0494468925330012,0.028004109082482867
11.0,False,0.13938832580862756,0.18214895473819046,0.9059707360050673,0.5079365079365079,0.234375,04746,True,0.46978798649471654,0.2216256700247496,0.057979943019507436
12.0,False,0.25142100979069715,0.4339034773828192,0.8645122417475878,0.5614035087719298,0.15517241379310345,04746,True,0.913670338495962,0.11667073147276025,0.026325422009677843
13.0,False,0.10263461651131853,0.10660713476741251,0.90939584432557,0.6,0.08196721311475409,04746,False,0.17543219481964353,0.06006902228474563,0.012482522540215734
14.0,False,0.14868246891349923,0.14938461427210545,0.7578011746061705,0.609375,0.23076923076923078,04746,False,0.41832860333745436,0.012634466564559799,0.05596801887393009
15.0,False,0.199808966141145,0.15629076523306287,0.5061810543261279,0.625,0.2153846153846154,04746,False,0.568369698628415,8.224901240007049e-05,0.048100492567135486
16.0,False,0.023455877014187658,0.03484231949144716,0.9258947875864593,0.5932203389830508,0.15,04746,False,0.002401134756644578,0.009378752434222728,0.024982893358373254
17.0,False,0.05001622915475949,0.026985213155135298,0.9058362613616197,0.6065573770491803,0.04838709677419355,04746,False,0.006135183255996561,0.02149829631969405,0.008839606673573646
18.0,False,0.10521554915379144,0.16341135293253647,0.923549943319369,0.4666666666666667,0.21311475409836064,04746,False,0.30919862950050425,0.1673497967296294,0.0470324865160244
19.0,False,0.0576811116930373,0.035928358068406156,0.9340471954913556,0.5,0.1864406779661017,04746,False,0.012580729440009274,0.12685946803829318,0.03606211085768402
20.0,False,0.03341113325567227,0.03659538160144654,0.9337702127266906,0.5932203389830508,0.13333333333333333,04746,False,0.004899947616840969,0.02247076920670508,0.021095656649282833
21.0,False,0.13131092247516635,0.1346610210514386,0.9126574233988816,0.4626865671641791,0.1323529411764706,04746,False,0.3268091871431107,0.14695405289831448,0.020886403148241143
22.0,False,0.10071436407750355,0.11732110833466959,0.8920981402666543,0.5352112676056338,0.16666666666666666,04746,False,0.1939132507044125,0.07135238383678802,0.02956478679821323
23.0,False,0.05574598583396996,0.029369670514263355,0.8772821803867122,0.6428571428571429,0.07017543859649122,04746,False,0.008542251182590433,0.016052524545078564,0.011059588768995094
24.0,False,0.09426431650776729,0.15512811809069102,0.8906208873648171,0.631578947368421,0.1896551724137931,04746,False,0.25229043506091037,0.05326950487547865,0.037240822080538125
25.0,False,0.029475473016412068,0.02345451305781225,0.9258947875864593,0.5333333333333333,0.03278688524590164,04746,False,0.001894503661431295,0.009650529549029807,0.0075273182208163356
26.0,False,0.054411308466228575,0.025022709478106035,0.8938758611593561,0.5,0.06557377049180328,04746,False,0.006306380191880681,0.026442312948683714,0.010548886640006479
27.0,False,0.20840026191935013,0.2159956835089393,0.6921014350277669,0.5555555555555556,0.3698630136986301,04746,True,0.7069061130547265,0.015077605185729214,0.20089242619011843
28.0,False,0.14747935412658655,0.17106530568858366,0.6500241269201119,0.4117647058823529,0.17391304347826086,04746,True,0.4694367589089066,0.0007755555006876812,0.03180227732301058
29.0,False,0.1419125179719961,0.1592827709746745,0.582300353346555,0.373134328358209,0.14705882352941177,04746,False,0.423522194687371,0.00013836456106905702,0.024249491223242596
30.0,False,0.10006254693628475,0.10355180747955475,0.9394673937266155,0.546875,0.1076923076923077,04746,False,0.16235748700159341,0.13191933649096937,0.016243602509504837
31.0,False,0.10452558772536408,0.09041693774003418,0.9671176261163436,0.5,0.1746031746031746,04746,False,0.14375664249731832,0.3742079934854496,0.03202372338425459
32.0,False,0.05248516871552197,0.036185427582618404,0.9422607496540691,0.5625,0.13846153846153847,04746,False,0.010763010748483749,0.08351364486472856,0.022224077021874587
33.0,False,0.05057436914638639,0.03155574242585044,0.9386873310259365,0.5573770491803278,0.14516129032258066,04746,False,0.008069854810777148,0.08256172884081488,0.023787514766138662
34.0,False,0.05306522719758408,0.03021973447097698,0.9206038629437827,0.6101694915254238,0.06666666666666667,04746,False,0.008195249273344609,0.035797652602018754,0.010668024764469852
35.0,False,0.08279142438866206,0.08200472857647939,0.9540032906793088,0.6727272727272727,0.125,04746,False,0.08603906066092233,0.1396351753744748,0.019380477584384527
36.0,False,0.04615722664089114,0.036907256234035374,0.9175529559336433,0.4745762711864407,0.2,04746,False,0.008842890515072576,0.06029713474001103,0.04129054604960799
37.0,False,0.04487122855837165,0.03570524853301901,0.9391660809434773,0.5901639344262295,0.12903225806451613,04746,False,0.007968878370958332,0.050465212620602475,0.02019262584854049
38.0,False,0.11566419513854867,0.10494454906753269,0.9388482598867911,0.5161290322580645,0.07936507936507936,04746,False,0.20445811723930554,0.1493686707503602,0.01215373004940413
39.0,False,0.04437734218799957,0.030072544567685253,0.8686626771161349,0.4915254237288136,0.1,04746,False,0.0059104109357768515,0.010495872916734785,0.015015056579494038
40.0,False,0.028986500586301964,0.02869248653955656,0.9001027412127615,0.6779661016949152,0.1,04746,False,0.0025553499933326502,0.006641345208047411,0.015015056579494038
41.0,False,0.02944090263532585,0.026911174315507918,0.9092118746407073,0.5862068965517241,0.03389830508474576,04746,False,0.00236648746177975,0.005800096857474659,0.007614047166699556
42.0,False,0.12763781507441208,0.13935130938753004,0.858913473052433,0.532258064516129,0.09523809523809523,04746,False,0.3279279553109405,0.03264746069166125,0.014300868412676547
43.0,False,0.15030160353222957,0.09447361185975965,0.6534238472362138,0.4915254237288136,0.13333333333333333,04746,False,0.2572730326559555,0.0009533136869721397,0.021095656649282833
44.0,False,0.056302836696580226,0.02790894852185249,0.946028694599509,0.5932203389830508,0.05,04746,False,0.008003806063843565,0.06713763940340638,0.00898759213815716
45.0,False,0.03493064576423793,0.02550851284810265,0.8863868762952148,0.4098360655737705,0.03225806451612903,04746,False,0.0029456255258589665,0.006280011056966156,0.0074863969508875885
46.0,False,0.2867362583968354,0.2962991970990814,0.8030879732045614,0.5797101449275363,0.4714285714285714,04746,True,0.8777186669531136,0.39954075493505326,0.4192513463755392
47.0,False,0.04914425651853487,0.030118267224082302,0.8993711377518252,0.4262295081967213,0.06451612903225806,04746,False,0.0071083118897440345,0.02132176431248727,0.010434845291068355
48.0,False,0.09346166129485589,0.1497648501201363,0.863382974577943,0.49122807017543857,0.3275862068965517,04746,False,0.23877888521615365,0.08874906545040581,0.1394553901038098
49.0,False,0.33233338920644134,0.3866307202296236,0.8110379154845687,0.5333333333333333,0.4605263157894737,04746,True,0.9353324171998515,0.4715541022735328,0.3919601435732137
50.0,False,0.2189237654905811,0.23505937713109779,0.623074603252925,0.4657534246575342,0.36486486486486486,04746,True,0.7516319146577011,0.003576823333355813,0.19268803370855164
51.0,False,0.30907314580782796,0.356289081255473,0.6605329903434163,0.5432098765432098,0.4634146341463415,04746,True,0.9173999355934792,0.027240490766784912,0.3991323404847467
52.0,False,0.13152927736141373,0.21415842545793487,0.6511804807574137,0.6461538461538462,0.30303030303030304,04746,True,0.5099370641761262,0.0011136761499132642,0.11156413607813105
53.0,False,0.2884484795155621,0.3506560793470244,0.7657236919275403,0.48,0.5263157894736842,04746,True,0.9052868506285097,0.2968142393061995,0.5607536582332551
54.0,False,0.2987721950437587,0.3182723481290629,0.665004945342031,0.484375,0.36923076923076925,04746,True,0.8967806475015935,0.01570429726301498,0.1998403283526513
55.0,False,0.07275099061995093,0.10179532300350623,0.9613833126392132,0.5660377358490566,0.09259259259259259,04746,False,0.09609917298650632,0.0912131978998286,0.0139186720668503
56.0,False,0.05452410407598079,0.031208319862519096,0.9744625737365972,0.48214285714285715,0.15789473684210525,04746,False,0.009061951201887209,0.2209148021043115,0.027059954980934
57.0,False,0.030068718695953865,0.02224849477688789,0.9287864036704792,0.5535714285714286,0.017543859649122806,04746,False,0.0018011702937245366,0.009874216582033442,0.006432252119544172
58.0,False,0.0483578183717295,0.0238891963224373,0.8901498238265633,0.42105263157894735,0.034482758620689655,04746,False,0.004737020973540207,0.016015019038872078,0.007660051722196636
59.0,False,0.1954639731182699,0.23579309073592003,0.7498897870133657,0.5,0.3230769230769231,04746,True,0.7127629280398412,0.031536823165115455,0.13392924838343687
60.0,False,0.06987099197926322,0.11132916641550573,0.9373196351473179,0.5789473684210527,0.2413793103448276,04746,False,0.10272107894989753,0.13108416619265692,0.062083459380960826
61.0,False,0.026122393330044416,0.03487516761577683,0.9003469779302189,0.7222222222222222,0.16363636363636364,04746,False,0.0029164518642529067,0.006945085332266093,0.028675043030591856
62.0,False,0.03186674057682693,0.031799881017550484,0.9442421663732737,0.7090909090909091,0.125,04746,False,0.003580961903385374,0.024062079388752985,0.019380477584384527
63.0,False,0.029480784378407947,0.03097386731741501,0.9501744143830645,0.7962962962962963,0.09090909090909091,04746,False,0.002984291843882178,0.016818887403567916,0.013680717761299293
64.0,False,0.020432193834891196,0.03125185110778688,0.9464658075328164,0.6909090909090909,0.08928571428571429,04746,False,0.0015696748191535831,0.0067341755855984025,0.013455062770481608
65.0,False,0.028525287926058157,0.030380182535927426,0.8884819559000953,0.6481481481481481,0.16363636363636364,04746,False,0.002725801683563863,0.007792579863746789,0.028675043030591856
66.0,False,0.024417933691100943,0.030028294321754127,0.8550181688697934,0.6226415094339622,0.14814814814814814,04746,False,0.002024119084837582,0.0023154688988851805,0.024518641007621477
67.0,False,0.025292133254846146,0.03565117051513615,0.9383174223787772,0.6666666666666666,0.21818181818181817,04746,False,0.0028531868205132448,0.02282207226366801,0.04944830394458707
68.0,False,0.028371155328275766,0.03837602776915225,0.9571173210526263,0.5471698113207547,0.2777777777777778,04746,False,0.003952056472062997,0.07134355706285209,0.08809338096351178
69.0,False,0.04518770140026944,0.03655881025491015,0.93847856574315,0.6730769230769231,0.22641509433962265,04746,False,0.008384778682915395,0.09272265417189564,0.053626068269914416
70.0,False,0.03158262565178777,0.037613702314247606,0.9525247428890874,0.6862745098039216,0.23076923076923078,04746,False,0.004633551037468641,0.05457411442274837,0.05596801887393009
71.0,False,0.047963405105876204,0.03800575467481084,0.9035389178341012,0.5882352941176471,0.28846153846153844,04746,False,0.009929119280848976,0.08256041239340953,0.09742431824182231
72.0,False,0.029754231106381274,0.036338047643255426,0.9469686893042106,0.6,0.21568627450980393,04746,False,0.003937039039649226,0.041353341087631224,0.04824414999038366
73.0,False,0.19917179161797313,0.20948991131793288,0.5942917524501394,0.75,0.45614035087719296,04746,True,0.6789586796830267,0.002593875329329503,0.38115854043511216
74.0,False,0.03538554014991085,0.03840955163999251,0.9408972816114322,0.6153846153846154,0.32075471698113206,04746,False,0.00587419798936038,0.10794673648755009,0.13115626634960295
75.0,False,0.05521914264879087,0.033732758554487374,0.8609898128338916,0.6538461538461539,0.16981132075471697,04746,False,0.01051383094733605,0.020530272892094123,0.03051638946436272
76.0,False,0.04706531204993433,0.029447728571001693,0.8984465801235916,0.5283018867924528,0.1111111111111111,04746,False,0.006344205033061201,0.024959898616728197,0.016820871847613692
77.0,False,0.02511228411636141,0.03298528767953361,0.8583961113652445,0.7,0.1568627450980392,04746,False,0.0024812819887104214,0.0025034095131751984,0.026779188484020684
78.0,False,0.056670168563966304,0.03730146104434092,0.8486406965251062,0.6981132075471698,0.2222222222222222,04746,False,0.01295417993987956,0.022043810548678305,0.05145847431838288
79.0,False,0.027760523533251473,0.03400184784547615,0.8986270842097999,0.7115384615384616,0.20754716981132076,04746,False,0.003120214110514431,0.011077028275211892,0.044507542392974636
80.0,False,0.024780448420110398,0.03839353778128808,0.9320117977345769,0.6730769230769231,0.2641509433962264,04746,False,0.0031042583781574606,0.02501816580531032,0.07736701455570306
81.0,False,0.029251930891910666,0.0324564507133322,0.8761965031388085,0.6346153846153846,0.1509433962264151,04746,False,0.0031762557017935293,0.0055175740034433835,0.02522268149893157
82.0,False,0.02401798657777354,0.03215246653621506,0.9006233569715836,0.6730769230769231,0.16981132075471697,04746,False,0.0021971778248768966,0.006579876085389756,0.03051638946436272
83.0,False,0.03251086117364376,0.033319443448977186,0.9637838991910731,0.5490196078431373,0.17307692307692307,04746,False,0.004005048419306092,0.05926902950546977,0.03153597057001181
84.0,False,0.027887975005333826,0.031768729843368954,0.8853004550306293,0.5686274509803921,0.17307692307692307,04746,False,0.002815782141909763,0.0075839137436704415,0.03153597057001181
85.0,False,0.036161749366727815,0.03480899911000812,0.9058501151885124,0.6274509803921569,0.15384615384615385,04746,False,0.005202325162903096,0.017392265794699834,0.02597463577072707
86.0,False,0.025203511431867224,0.0339097092439509,0.879806189138341,0.5660377358490566,0.2037037037037037,04746,False,0.002612738318264871,0.006283691800504627,0.042840458109976866
87.0,False,0.027626885217441277,0.037186594519626574,0.9060969128893611,0.5769230769230769,0.2641509433962264,04746,False,0.003579863847418702,0.02038008241938985,0.07736701455570306
88.0,False,0.02728843488644518,0.0357182921228651,0.9340618826291285,0.5660377358490566,0.2962962962962963,04746,False,0.0032790215920635592,0.04755032590405232,0.104817819949213
89.0,False,0.025474310589081936,0.031691877650055364,0.8780950863502682,0.6274509803921569,0.17307692307692307,04746,False,0.00238477839953262,0.004952316536932696,0.03153597057001181
90.0,False,0.02128107903923462,0.02869963754851677,0.9352526439009909,0.6415094339622641,0.07407407407407407,04746,False,0.0014690813565888517,0.0057400779145502945,0.01151134244014062
91.0,False,0.03152429724004737,0.037295705632628746,0.841669469372711,0.5882352941176471,0.19230769230769232,04746,False,0.004554815869819331,0.003921807066114844,0.038241273712647336
92.0,False,0.0315317917220337,0.03267094844847247,0.8943083992516034,0.6274509803921569,0.17307692307692307,04746,False,0.0036722102064746863,0.011693159099321636,0.03153597057001181
93.0,False,0.034100771857967435,0.034648271699673175,0.9446721426127743,0.6037735849056604,0.2037037037037037,04746,False,0.004649136420250706,0.05143436024425873,0.042840458109976866
94.0,False,0.025771584249449194,0.03227600145038382,0.8939997743040319,0.6274509803921569,0.21153846153846154,04746,False,0.0025085782359698036,0.009536481620899916,0.04630411916865107
95.0,False,0.03991189450604624,0.03343742210868124,0.8941146907179489,0.5882352941176471,0.19230769230769232,04746,False,0.005812013339630349,0.0241140755712376,0.038241273712647336
96.0,False,0.04785397658775045,0.03687564969591092,0.8983529218176746,0.54,0.21568627450980393,04746,False,0.00941662375116184,0.04663049289040287,0.04824414999038366
97.0,False,0.04935322605335711,0.03437344391787203,0.9191582222819693,0.5686274509803921,0.21153846153846154,04746,False,0.008876580433280285,0.07745779695965765,0.04630411916865107
98.0,False,0.05407706890187834,0.030436669108272047,0.9557558290283484,0.4727272727272727,0.08928571428571429,04746,False,0.008574628128792082,0.10070934108563258,0.013455062770481608
99.0,False,0.03480667762862586,0.03195423707484792,0.9059335132666556,0.6153846153846154,0.1509433962264151,04746,False,0.0042266837696812165,0.01672541541544124,0.02522268149893157
100.0,False,0.024274343068622924,0.03136870384361623,0.8899124623483077,0.6274509803921569,0.15384615384615385,04746,False,0.0021509198336535393,0.004987592643738096,0.02597463577072707
101.0,False,0.07164730510366904,0.028600165132815783,0.8023615134053674,0.5,0.05084745762711865,04746,False,0.012782007526117382,0.005591804890138847,0.009066328372685199
102.0,False,0.02499324599806704,0.03344268779229471,0.9117638022185502,0.6078431372549019,0.2692307692307692,04746,False,0.002516194129983922,0.019863128827300083,0.08121807355120898
103.0,False,0.036573117519374684,0.029249845613137145,0.8937369666304644,0.6037735849056604,0.09259259259259259,04746,False,0.003998103815605584,0.010075312121485318,0.0139186720668503
104.0,False,0.03288182083655156,0.030192791153845187,0.8851001799333224,0.5,0.09433962264150944,04746,False,0.00348048091688693,0.006875179866628379,0.014169919908537278
105.0,False,0.06898820087499943,0.029855590276686633,0.896767745798685,0.375,0.03508771929824561,04746,False,0.012812144880125312,0.03836982160341161,0.007707960982350523
106.0,False,0.02154519382960647,0.033988116687278545,0.9422993246309255,0.68,0.29411764705882354,04746,False,0.0019800334699272754,0.030309906061765167,0.102713531588874
107.0,False,0.1066469689372836,0.11326762480263115,0.9143408650492058,0.509090909090909,0.2857142857142857,04746,False,0.201084948510986,0.27235439156734664,0.0949439495369357
108.0,False,0.03395112464932692,0.03386185921121357,0.951206622719795,0.6274509803921569,0.21153846153846154,04746,False,0.0044433513912331395,0.061708375838854135,0.04630411916865107
109.0,False,0.03568132475330484,0.03136087837618264,0.8983144698866925,0.58,0.17647058823529413,04746,False,0.004285583829014506,0.018928271861808742,0.03263043068787308
110.0,False,0.05970785420053486,0.03337968534612666,0.8490395454823817,0.5,0.12280701754385964,04746,False,0.011875437351928015,0.015297355946333389,0.018952314477367428
111.0,False,0.04427956516776738,0.03518259777932955,0.9639816748693987,0.52,0.19607843137254902,04746,False,0.007598403376765245,0.13686148346147975,0.03970800368176581
112.0,False,0.04316379568998102,0.03896083133504098,0.9182926247544795,0.5471698113207547,0.24074074074074073,04746,False,0.008568436899966263,0.06378787831774091,0.061698386236309646
113.0,False,0.16366744641469508,0.2559596300174813,0.5817115290100716,0.6415094339622641,0.3888888888888889,04746,True,0.673546902523845,0.0006796991567915466,0.23449171842394517
114.0,False,0.11707606471500934,0.18036449606267352,0.9391605455576121,0.6666666666666666,0.19230769230769232,04746,False,0.3892562100258361,0.20082725968692744,0.038241273712647336
115.0,False,0.12526529362234293,0.030368221337985914,0.9171752555462851,0.5161290322580645,0.12698412698412698,04746,False,0.03750092148180017,0.32703887594556724,0.019776024329409506
116.0,False,0.058253443495329585,0.0299995102921324,0.9384703392253175,0.5555555555555556,0.0625,04746,False,0.00956161167861093,0.06616177681076196,0.010220822731103488
117.0,False,0.03917110038432983,0.033051822428707106,0.9020857505490386,0.5892857142857143,0.10526315789473684,04746,False,0.005515637580316095,0.014517505701711802,0.015845322049148434
118.0,False,0.049542945067280665,0.03315024402275489,0.894609805371407,0.5818181818181818,0.17857142857142858,04746,False,0.00842709162535531,0.03742804755893442,0.03332625322476698
119.0,False,0.043418786316766544,0.039786704948585404,0.8746453121388132,0.5892857142857143,0.19298245614035087,04746,False,0.008958528962084327,0.017038967108351604,0.038499863999317256
0.0,False,0.02099745606567451,0.018886714380132043,0.8176637179623374,0.22105263157894736,0.0,04908,False,0.0006370201327603983,0.0003737470370851614,0.004565649052450256
1.0,False,0.040351155516627164,0.06016061079921233,0.8869125973992046,0.27956989247311825,0.031914893617021274,04908,False,0.015559896486801561,0.004813490311449323,0.006395363278969682
2.0,False,0.034278158023327156,0.022626890970661062,0.9511267488813988,0.25,0.0,04908,False,0.0018843974179198913,0.01855736312837676,0.004565649052450256
3.0,False,0.02296517628843642,0.019617631119940096,0.8492303592134224,0.22448979591836735,0.0,04908,False,0.0007841615415124417,0.0008961617382897511,0.004565649052450256
4.0,False,0.025495854791736536,0.021563902818822353,0.9053570231348126,0.19387755102040816,0.0,04908,False,0.0011005960563149756,0.0038588055178255505,0.004565649052450256
5.0,False,0.023646458878956358,0.020223852572974346,0.8261797120824448,0.19,0.0,04908,False,0.0008687622773900434,0.0005914028968621412,0.004565649052450256
6.0,False,0.024718885399141275,0.021103306040399415,0.8776496600328321,0.22448979591836735,0.0,04908,False,0.0010078456120504982,0.0019040373577053039,0.004565649052450256
7.0,False,0.02269725655971248,0.020307157449337164,0.8629749108153706,0.20408163265306123,0.0,04908,False,0.000823258995468024,0.001189601320841699,0.004565649052450256
8.0,False,0.022102605900345053,0.01888505987643833,0.824071734829572,0.22105263157894736,0.0,04908,False,0.0006880663646019548,0.00048361956810236335,0.004565649052450256
9.0,False,0.02154316448710821,0.019290583201082158,0.8495818166464779,0.26595744680851063,0.0,04908,False,0.0006895733031709895,0.0007487168864324796,0.004565649052450256
10.0,False,0.02147897368364639,0.019667678290554116,0.8706278360640759,0.2553191489361702,0.0,04908,False,0.0007124812886176729,0.0011862078244311753,0.004565649052450256
11.0,False,0.022596482592829873,0.02011405232252856,0.8688111723133238,0.21505376344086022,0.0,04908,False,0.0008028958619625111,0.0013280204149089096,0.004565649052450256
12.0,False,0.023522439395877844,0.020447465532013643,0.8718687150832386,0.26595744680851063,0.0,04908,False,0.000880300279157123,0.0014471774937990542,0.004565649052450256
13.0,False,0.020004021428509502,0.01874235639939149,0.8202332616721714,0.15053763440860216,0.0,04908,False,0.0005835131518076515,0.000388635379366734,0.004565649052450256
14.0,False,0.020994664362396227,0.019481786760619086,0.8172489931464014,0.2127659574468085,0.0,04908,False,0.000675985456210737,0.0003678430416409232,0.004565649052450256
15.0,False,0.02064000116305573,0.018332740246437287,0.8364323896005895,0.20430107526881722,0.0,04908,False,0.0005862637627036974,0.0005644370752454407,0.004565649052450256
16.0,False,0.141909717497347,0.21702279233805372,0.8415755916086032,0.26595744680851063,0.042105263157894736,04908,True,0.5531008078884221,0.016645608998009275,0.007120925501579465
17.0,False,0.02230198643852689,0.0182521464385715,0.8722447611830552,0.24210526315789474,0.0,04908,False,0.0006532438248482686,0.0014169827826035753,0.004565649052450256
18.0,False,0.02358258992729115,0.02110908085814732,0.8684938521471155,0.21428571428571427,0.010101010101010102,04908,False,0.0009394025607563401,0.0015338011124568904,0.005079892743191481
19.0,False,0.021540032385419666,0.018913728296351375,0.8418449991469926,0.1919191919191919,0.0,04908,False,0.0006637920277975693,0.0006996075651039952,0.004565649052450256
20.0,False,0.034055115108481214,0.03907971414123919,0.9641842709776426,0.375,0.061855670103092786,04908,False,0.005314288260058104,0.02509338282198702,0.008767705901284525
21.0,False,0.021837252043777067,0.02173146434815672,0.8545376479541695,0.27956989247311825,0.0,04908,False,0.000884706303274259,0.0007937907258787041,0.004565649052450256
22.0,False,0.018959689363072175,0.018047457771707163,0.8097052644413909,0.2553191489361702,0.0,04908,False,0.0005005686900685014,0.0002442878470940635,0.004565649052450256
23.0,False,0.018837700193441755,0.01834938648146792,0.7767327826334638,0.18478260869565216,0.0,04908,False,0.0005117760282716267,0.0001258557023181717,0.004565649052450256
24.0,False,0.01885031459877486,0.018279710314006943,0.8144731045048829,0.22826086956521738,0.0,04908,False,0.0005085627801307263,0.00027515005127982364,0.004565649052450256
25.0,False,0.01813104908642975,0.01782109009507941,0.7814513670920676,0.2608695652173913,0.0,04908,False,0.0004567721859955007,0.00011831572587022704,0.004565649052450256
26.0,False,0.019218634219351292,0.01877397214184781,0.8192089404859911,0.1978021978021978,0.0,04908,False,0.0005511328306173264,0.000326777229096279,0.004565649052450256
27.0,False,0.02163904828161976,0.022145743307111276,0.8440666704590998,0.25555555555555554,0.01098901098901099,04908,False,0.0009048612735490476,0.0006864322815968851,0.005127766915937132
28.0,False,0.02255130990652153,0.021015583491921414,0.8672141226807728,0.2717391304347826,0.0,04908,False,0.000870783794424525,0.001161190214428361,0.004565649052450256
29.0,False,0.08082611310942857,0.10114150533670939,0.9190028858571658,0.2604166666666667,0.041237113402061855,04908,False,0.10888421481943822,0.037977251788516415,0.007056051166748058
30.0,False,0.023625706564909418,0.018847296584093228,0.8739141691728429,0.29896907216494845,0.0,04908,False,0.0007577848239928071,0.0015335226343279186,0.004565649052450256
31.0,False,0.023855778576160957,0.019647662802719266,0.857969796675761,0.21649484536082475,0.0,04908,False,0.0008328433277333404,0.0011953390791446768,0.004565649052450256
32.0,False,0.020660413534221694,0.018158739365287488,0.835130100806206,0.21428571428571427,0.0,04908,False,0.0005764819452461405,0.0005456834333950526,0.004565649052450256
33.0,False,0.021562389895482367,0.019082676765566763,0.8240731800585404,0.21428571428571427,0.0,04908,False,0.0006762807111029879,0.0004585389066460225,0.004565649052450256
34.0,False,0.01872471272740579,0.016527091591897122,0.7852062075012742,0.1919191919191919,0.0,04908,False,0.0004148554889904045,0.0001570122466937486,0.004565649052450256
35.0,False,0.022433582655427792,0.01897477187332261,0.841742485762158,0.2222222222222222,0.0,04908,False,0.0007100747100529043,0.0007356740899481683,0.004565649052450256
36.0,False,0.021409705522910126,0.018478870631949706,0.8040865809388654,0.19,0.0,04908,False,0.0006290191277188813,0.00030450531219948653,0.004565649052450256
37.0,False,0.02670923890149655,0.03134316101458562,0.8685726100287525,0.22,0.0297029702970297,04908,False,0.002418678363696059,0.001904905554588446,0.00624784671369252
38.0,False,0.022860532335712606,0.0199180231766841,0.8325631476375237,0.19387755102040816,0.0,04908,False,0.0008018450143322528,0.0006327815610390444,0.004565649052450256
39.0,False,0.023118593845351722,0.02000612448835423,0.8499413084781141,0.23469387755102042,0.0,04908,False,0.0008224540613401385,0.0009028165861702795,0.004565649052450256
40.0,False,0.05129219859422713,0.07937787971707329,0.8912810065924069,0.2755102040816326,0.09090909090909091,04908,False,0.037214194008733346,0.012478531894029418,0.011898151856148674
41.0,False,0.02330219541020572,0.020086456650302748,0.8723493705823038,0.26804123711340205,0.0,04908,False,0.0008387377694565521,0.0014418895046174227,0.004565649052450256
42.0,False,0.023027001246782496,0.02073627304102731,0.8498365716416132,0.25,0.0,04908,False,0.0008757996994821132,0.0008589206903804134,0.004565649052450256
43.0,False,0.023636830054918238,0.022361917718071302,0.8730023598286849,0.20833333333333334,0.0,04908,False,0.0010529837504320563,0.0015357371355151275,0.004565649052450256
44.0,False,0.03558537534622716,0.05426055185094953,0.8389188889441906,0.22916666666666666,0.030927835051546393,04908,False,0.010611624633061353,0.0014071675452704702,0.006329112024909012
45.0,False,0.025068406414569446,0.022166656480608293,0.8793278361388649,0.21875,0.0,04908,False,0.001131241106493924,0.002000252050772918,0.004565649052450256
46.0,False,0.02254702705255389,0.021318908833807458,0.8499395905151449,0.22916666666666666,0.0,04908,False,0.0008948176212699575,0.0008298208100959012,0.004565649052450256
47.0,False,0.025737960431875772,0.02337909833326516,0.9028472442678551,0.2268041237113402,0.0,04908,False,0.001303687277087292,0.0034275170110751184,0.004565649052450256
48.0,False,0.026023592520124348,0.0224804547371387,0.8770288008886296,0.21212121212121213,0.0,04908,False,0.0012294727770339204,0.002070771303294577,0.004565649052450256
49.0,False,0.023533631350602092,0.021751945595693222,0.8380472707850358,0.21,0.0,04908,False,0.0009919834963694782,0.0007126482992512787,0.004565649052450256
50.0,False,0.02512763497115573,0.02125757477923579,0.8837035138277154,0.26,0.0,04908,False,0.0010475854745181784,0.0021516423468769994,0.004565649052450256
51.0,False,0.023648719263032355,0.0213690127039239,0.8624593114281122,0.20202020202020202,0.0,04908,False,0.0009657983519733842,0.0012588860877633594,0.004565649052450256
52.0,False,0.024497537898933927,0.019494210783878783,0.8884442964221593,0.1326530612244898,0.0,04908,False,0.0008538575335946855,0.002769796378701694,0.004565649052450256
53.0,False,0.021910277573071537,0.01914270345112523,0.8563181719779522,0.25773195876288657,0.0,04908,False,0.0006969707301090002,0.0009156798654346149,0.004565649052450256
54.0,False,0.021290489584023877,0.019114226916138094,0.8510628554197861,0.20618556701030927,0.0,04908,False,0.0006655864802624154,0.0008155829857762788,0.004565649052450256
55.0,False,0.023033066931147893,0.024670821765716656,0.8435452893370177,0.22916666666666666,0.010309278350515464,04908,False,0.0012229664837243917,0.0007579077342101321,0.005091080893626938
56.0,False,0.01994755073733117,0.01807940380364124,0.8010405615045015,0.17894736842105263,0.0,04908,False,0.0005422065464802914,0.0002488237754669816,0.004565649052450256
57.0,False,0.019577710369577637,0.019483364431828465,0.8195768080847089,0.23404255319148937,0.0,04908,False,0.0006085544501502147,0.0003218160755349472,0.004565649052450256
58.0,False,0.02861847348405029,0.04137071232315817,0.8440555447439965,0.25806451612903225,0.031914893617021274,04908,False,0.0045653883012982364,0.0010832300450283096,0.006395363278969682
59.0,False,0.018287105903556512,0.01776069644564995,0.7778453032002208,0.20430107526881722,0.0,04908,False,0.0004597003115410271,0.00011978784780669613,0.004565649052450256
60.0,False,0.02330100934957904,0.027924805983326702,0.8402179628301591,0.29347826086956524,0.021505376344086023,04908,False,0.001578421923743494,0.0006813742326361898,0.0057300307404972006
61.0,False,0.07681877832630683,0.07898697589404904,0.8953449745847634,0.28125,0.020618556701030927,04908,False,0.06574843067921862,0.019377750123258645,0.005676636548634139
62.0,False,0.020044229778227625,0.018192236812687147,0.8015740091713814,0.16666666666666666,0.0,04908,False,0.0005527347642120807,0.0002576102967103904,0.004565649052450256
63.0,False,0.14390763599886197,0.2080227702854636,0.8882538826197343,0.2903225806451613,0.05319148936170213,04908,True,0.5381479505999169,0.05036336974903021,0.008003309968690543
64.0,False,0.01876221221516702,0.019219605857402206,0.7680561098230164,0.3473684210526316,0.0,04908,False,0.0005560326934371935,8.196072732239294e-05,0.004565649052450256
65.0,False,0.01999371166496241,0.02008416575619283,0.8163579341676787,0.25,0.0,04908,False,0.0006658578807368116,0.00030314631033428915,0.004565649052450256
66.0,False,0.04580893411981179,0.07283038974668508,0.8502092497785779,0.2872340425531915,0.031578947368421054,04908,False,0.026884586982617947,0.0025480189365716115,0.006372737615970315
67.0,False,0.02137401143178415,0.025088605018565094,0.8144997863102651,0.26595744680851063,0.021052631578947368,04908,False,0.0011286041199542742,0.0003471975252703958,0.005702709503983636
68.0,False,0.018454914339629053,0.01786296530814303,0.8027971298585187,0.22580645161290322,0.0,04908,False,0.00047123760058625526,0.0002058505690122431,0.004565649052450256
69.0,False,0.020666953247321058,0.019562497134133945,0.8200901034855239,0.24731182795698925,0.0,04908,False,0.0006654189850068907,0.0003611473619919911,0.004565649052450256
70.0,False,0.07155268058854451,0.0852016535397845,0.8433288109844669,0.24468085106382978,0.08421052631578947,04908,False,0.06815397281718114,0.008771890484391448,0.011090391150418578
71.0,False,0.020107828076000946,0.019605562806954798,0.8379895972568643,0.2391304347826087,0.0,04908,False,0.0006411945639500162,0.0005083045925909433,0.004565649052450256
72.0,False,0.019197436340764755,0.01848491629277809,0.8165625373859041,0.2391304347826087,0.0,04908,False,0.0005340630345030526,0.00029446614619164094,0.004565649052450256
73.0,False,0.09054929757658782,0.1448688615962809,0.8748903803346519,0.3548387096774194,0.0851063829787234,04908,False,0.22433878345720962,0.019546273425322887,0.011195195698562702
74.0,False,0.16743454769599714,0.28587196721975416,0.5238564286415525,0.41935483870967744,0.2872340425531915,04908,True,0.729473028770933,0.00010881470688390709,0.08826970121152743
75.0,False,0.20124761110813422,0.3458848650081633,0.5521027241400609,0.4222222222222222,0.34065934065934067,04908,True,0.8369002836840582,0.0004216714212912412,0.14582722574972085
76.0,False,0.06699774495233791,0.07650843850507252,0.8224922760404167,0.27956989247311825,0.05319148936170213,04908,False,0.05110943584121572,0.003810175348272018,0.008003309968690543
77.0,False,0.04668424856747871,0.07686576847512414,0.8203770732272191,0.2608695652173913,0.03225806451612903,04908,False,0.030566741449428645,0.0013908750764924744,0.006418557921336444
78.0,False,0.02044485534259244,0.019027056204034835,0.8125373860167051,0.21739130434782608,0.0,04908,False,0.0006207014258591034,0.0003143647140535038,0.004565649052450256
79.0,False,0.021354499143735894,0.020472167546792434,0.8476338542379299,0.1827956989247312,0.0,04908,False,0.0007627875111754808,0.0007552718070123084,0.004565649052450256
80.0,False,0.07618781320204607,0.11944482337024522,0.8747813625729511,0.2872340425531915,0.08421052631578947,04908,False,0.13335306018333393,0.015872095512526174,0.011090391150418578
81.0,False,0.1065514397059269,0.10773572853401192,0.7462621380913369,0.4105263157894737,0.20833333333333334,04908,False,0.1730191898375175,0.004854411861440451,0.040207420639107365
82.0,True,0.1620418193354343,0.22902914895940799,0.8993897210309836,0.696078431372549,0.6407766990291263,04908,True,0.6263546417760182,0.8390358670795347,0.8051419439507651
